File Path	chrom://990-75db15j/XVault/Ultimate_3000/1256/20230531_CMO_stabTest _FP08_FP09.seq/285.smp/RI_1.channel/RI_1.chm
Channel	RI_1

Injection Information:
Data Vault	XVault
Injection	FP08_9_s1
Injection Number	48
Position	BA12
Comment	
Processing Method	
Instrument Method	run_25B_method
Type	Unknown
Status	Finished
Injection Date	02.06.2023
Injection Time	21:50:14
Injection Volume (µl)	20.000
Dilution Factor	1.0000
Weight	1.0000

Chromatogram Data Information:
Time Min. (min)	0.000000
Time Max. (min)	40.000000
Data Points	2401
Detector	RI
Generating Data System	Chromeleon 7.2.5.9507
Exporting Data System	Chromeleon 7.2.5.0
Operator	Instrument Controller
Signal Quantity	Refractive 
Signal Unit	µRIU
Signal Min.	-0.967500
Signal Max.	64.275375
Channel	RI_1
Driver Name	RID520Driver.dll
Channel Type	Evaluation
Min. Step (s)	1
Max. Step (s)	1
Average Step (s)	1

Signal Parameter Information:
Signal Info	

Chromatogram Data:
Time (min)	Step (s)	Value (µRIU)
0.000000	n.a.	-0.049750
0.016667	1	-0.050750
0.033333	1	-0.051375
0.050000	1	-0.051375
0.066667	1	-0.052000
0.083333	1	-0.052750
0.100000	1	-0.053000
0.116667	1	-0.052875
0.133333	1	-0.053500
0.150000	1	-0.054000
0.166667	1	-0.054125
0.183333	1	-0.054750
0.200000	1	-0.055750
0.216667	1	-0.055625
0.233333	1	-0.056000
0.250000	1	-0.056125
0.266667	1	-0.056875
0.283333	1	-0.058375
0.300000	1	-0.061375
0.316667	1	-0.065125
0.333333	1	-0.067125
0.350000	1	-0.066125
0.366667	1	-0.062375
0.383333	1	-0.058875
0.400000	1	-0.054875
0.416667	1	-0.051875
0.433333	1	-0.048875
0.450000	1	-0.046000
0.466667	1	-0.044625
0.483333	1	-0.044000
0.500000	1	-0.045250
0.516667	1	-0.047375
0.533333	1	-0.048875
0.550000	1	-0.051000
0.566667	1	-0.052625
0.583333	1	-0.053500
0.600000	1	-0.054375
0.616667	1	-0.055125
0.633333	1	-0.054875
0.650000	1	-0.055250
0.666667	1	-0.056000
0.683333	1	-0.056625
0.700000	1	-0.057125
0.716667	1	-0.057250
0.733333	1	-0.057000
0.750000	1	-0.057375
0.766667	1	-0.057875
0.783333	1	-0.057625
0.800000	1	-0.057250
0.816667	1	-0.057125
0.833333	1	-0.057125
0.850000	1	-0.056625
0.866667	1	-0.056500
0.883333	1	-0.056000
0.900000	1	-0.055375
0.916667	1	-0.055125
0.933333	1	-0.055125
0.950000	1	-0.055500
0.966667	1	-0.055375
0.983333	1	-0.055250
1.000000	1	-0.054875
1.016667	1	-0.055375
1.033333	1	-0.055750
1.050000	1	-0.055125
1.066667	1	-0.055000
1.083333	1	-0.055250
1.100000	1	-0.055500
1.116667	1	-0.056000
1.133333	1	-0.056750
1.150000	1	-0.057125
1.166667	1	-0.057875
1.183333	1	-0.058250
1.200000	1	-0.058625
1.216667	1	-0.059875
1.233333	1	-0.059875
1.250000	1	-0.060750
1.266667	1	-0.061500
1.283333	1	-0.062125
1.300000	1	-0.062875
1.316667	1	-0.063625
1.333333	1	-0.064625
1.350000	1	-0.066375
1.366667	1	-0.067000
1.383333	1	-0.067500
1.400000	1	-0.068250
1.416667	1	-0.068875
1.433333	1	-0.069125
1.450000	1	-0.069875
1.466667	1	-0.071125
1.483333	1	-0.071500
1.500000	1	-0.072875
1.516667	1	-0.073625
1.533333	1	-0.074750
1.550000	1	-0.075625
1.566667	1	-0.076375
1.583333	1	-0.077125
1.600000	1	-0.077875
1.616667	1	-0.078875
1.633333	1	-0.080125
1.650000	1	-0.080875
1.666667	1	-0.081625
1.683333	1	-0.082250
1.700000	1	-0.082750
1.716667	1	-0.083750
1.733333	1	-0.085000
1.750000	1	-0.085625
1.766667	1	-0.087000
1.783333	1	-0.087750
1.800000	1	-0.088125
1.816667	1	-0.088250
1.833333	1	-0.089125
1.850000	1	-0.089375
1.866667	1	-0.089375
1.883333	1	-0.090750
1.900000	1	-0.091375
1.916667	1	-0.092250
1.933333	1	-0.092875
1.950000	1	-0.093500
1.966667	1	-0.093375
1.983333	1	-0.093250
2.000000	1	-0.092750
2.016667	1	-0.092875
2.033333	1	-0.092375
2.050000	1	-0.092500
2.066667	1	-0.091500
2.083333	1	-0.091125
2.100000	1	-0.090625
2.116667	1	-0.089500
2.133333	1	-0.089250
2.150000	1	-0.088000
2.166667	1	-0.087000
2.183333	1	-0.085500
2.200000	1	-0.084500
2.216667	1	-0.082750
2.233333	1	-0.081250
2.250000	1	-0.080125
2.266667	1	-0.078000
2.283333	1	-0.076375
2.300000	1	-0.075500
2.316667	1	-0.073625
2.333333	1	-0.072125
2.350000	1	-0.070625
2.366667	1	-0.068250
2.383333	1	-0.066000
2.400000	1	-0.064500
2.416667	1	-0.063000
2.433333	1	-0.060750
2.450000	1	-0.059250
2.466667	1	-0.057500
2.483333	1	-0.055625
2.500000	1	-0.054250
2.516667	1	-0.053375
2.533333	1	-0.051500
2.550000	1	-0.050375
2.566667	1	-0.048875
2.583333	1	-0.047875
2.600000	1	-0.046500
2.616667	1	-0.045750
2.633333	1	-0.044250
2.650000	1	-0.042875
2.666667	1	-0.041625
2.683333	1	-0.041125
2.700000	1	-0.040375
2.716667	1	-0.039750
2.733333	1	-0.038750
2.750000	1	-0.037625
2.766667	1	-0.037000
2.783333	1	-0.036875
2.800000	1	-0.035750
2.816667	1	-0.035375
2.833333	1	-0.034500
2.850000	1	-0.033750
2.866667	1	-0.033875
2.883333	1	-0.033500
2.900000	1	-0.033375
2.916667	1	-0.033625
2.933333	1	-0.033375
2.950000	1	-0.032625
2.966667	1	-0.032500
2.983333	1	-0.032625
3.000000	1	-0.032875
3.016667	1	-0.032125
3.033333	1	-0.031875
3.050000	1	-0.032625
3.066667	1	-0.032250
3.083333	1	-0.032125
3.100000	1	-0.032250
3.116667	1	-0.031750
3.133333	1	-0.032750
3.150000	1	-0.033250
3.166667	1	-0.032750
3.183333	1	-0.032875
3.200000	1	-0.033250
3.216667	1	-0.034375
3.233333	1	-0.034250
3.250000	1	-0.034375
3.266667	1	-0.034250
3.283333	1	-0.034875
3.300000	1	-0.035000
3.316667	1	-0.035750
3.333333	1	-0.036250
3.350000	1	-0.037250
3.366667	1	-0.038125
3.383333	1	-0.039625
3.400000	1	-0.039625
3.416667	1	-0.040000
3.433333	1	-0.041625
3.450000	1	-0.042625
3.466667	1	-0.044000
3.483333	1	-0.045000
3.500000	1	-0.046125
3.516667	1	-0.047625
3.533333	1	-0.048000
3.550000	1	-0.048750
3.566667	1	-0.050375
3.583333	1	-0.050625
3.600000	1	-0.051500
3.616667	1	-0.052250
3.633333	1	-0.053125
3.650000	1	-0.053375
3.666667	1	-0.054000
3.683333	1	-0.054250
3.700000	1	-0.055125
3.716667	1	-0.055375
3.733333	1	-0.055750
3.750000	1	-0.056000
3.766667	1	-0.056375
3.783333	1	-0.056250
3.800000	1	-0.056125
3.816667	1	-0.056375
3.833333	1	-0.056250
3.850000	1	-0.055875
3.866667	1	-0.055875
3.883333	1	-0.056250
3.900000	1	-0.055625
3.916667	1	-0.055125
3.933333	1	-0.055000
3.950000	1	-0.055250
3.966667	1	-0.055000
3.983333	1	-0.054875
4.000000	1	-0.054250
4.016667	1	-0.054250
4.033333	1	-0.053750
4.050000	1	-0.053625
4.066667	1	-0.053500
4.083333	1	-0.054250
4.100000	1	-0.054750
4.116667	1	-0.055375
4.133333	1	-0.054750
4.150000	1	-0.055125
4.166667	1	-0.054875
4.183333	1	-0.055375
4.200000	1	-0.055875
4.216667	1	-0.056125
4.233333	1	-0.056625
4.250000	1	-0.056125
4.266667	1	-0.056375
4.283333	1	-0.056875
4.300000	1	-0.057750
4.316667	1	-0.059125
4.333333	1	-0.059750
4.350000	1	-0.060625
4.366667	1	-0.061000
4.383333	1	-0.061125
4.400000	1	-0.061250
4.416667	1	-0.061625
4.433333	1	-0.061875
4.450000	1	-0.062250
4.466667	1	-0.062625
4.483333	1	-0.063375
4.500000	1	-0.063750
4.516667	1	-0.063125
4.533333	1	-0.062750
4.550000	1	-0.063125
4.566667	1	-0.063625
4.583333	1	-0.063500
4.600000	1	-0.062875
4.616667	1	-0.063250
4.633333	1	-0.062375
4.650000	1	-0.062250
4.666667	1	-0.061625
4.683333	1	-0.060875
4.700000	1	-0.059875
4.716667	1	-0.058625
4.733333	1	-0.057625
4.750000	1	-0.056250
4.766667	1	-0.055250
4.783333	1	-0.053375
4.800000	1	-0.051375
4.816667	1	-0.049250
4.833333	1	-0.047375
4.850000	1	-0.045500
4.866667	1	-0.044250
4.883333	1	-0.042000
4.900000	1	-0.039375
4.916667	1	-0.036375
4.933333	1	-0.034000
4.950000	1	-0.031875
4.966667	1	-0.029000
4.983333	1	-0.026000
5.000000	1	-0.022875
5.016667	1	-0.019875
5.033333	1	-0.017250
5.050000	1	-0.014250
5.066667	1	-0.011625
5.083333	1	-0.008750
5.100000	1	-0.006625
5.116667	1	-0.003750
5.133333	1	-0.001625
5.150000	1	0.000500
5.166667	1	0.003250
5.183333	1	0.004750
5.200000	1	0.007000
5.216667	1	0.009250
5.233333	1	0.011000
5.250000	1	0.012750
5.266667	1	0.014625
5.283333	1	0.016000
5.300000	1	0.017625
5.316667	1	0.018375
5.333333	1	0.019500
5.350000	1	0.020125
5.366667	1	0.021500
5.383333	1	0.022000
5.400000	1	0.023000
5.416667	1	0.024250
5.433333	1	0.025250
5.450000	1	0.026125
5.466667	1	0.026875
5.483333	1	0.026500
5.500000	1	0.026250
5.516667	1	0.026625
5.533333	1	0.026500
5.550000	1	0.026875
5.566667	1	0.027750
5.583333	1	0.028250
5.600000	1	0.028250
5.616667	1	0.027500
5.633333	1	0.027250
5.650000	1	0.027250
5.666667	1	0.026375
5.683333	1	0.026000
5.700000	1	0.025375
5.716667	1	0.025500
5.733333	1	0.024375
5.750000	1	0.024125
5.766667	1	0.023000
5.783333	1	0.022125
5.800000	1	0.021500
5.816667	1	0.021000
5.833333	1	0.020000
5.850000	1	0.018625
5.866667	1	0.017750
5.883333	1	0.016375
5.900000	1	0.015625
5.916667	1	0.014625
5.933333	1	0.013625
5.950000	1	0.012250
5.966667	1	0.011750
5.983333	1	0.010375
6.000000	1	0.009125
6.016667	1	0.007625
6.033333	1	0.007375
6.050000	1	0.006625
6.066667	1	0.005500
6.083333	1	0.004875
6.100000	1	0.004375
6.116667	1	0.004250
6.133333	1	0.003875
6.150000	1	0.003250
6.166667	1	0.003000
6.183333	1	0.002875
6.200000	1	0.003375
6.216667	1	0.003500
6.233333	1	0.003875
6.250000	1	0.004375
6.266667	1	0.005375
6.283333	1	0.006000
6.300000	1	0.007125
6.316667	1	0.008250
6.333333	1	0.009250
6.350000	1	0.010375
6.366667	1	0.011875
6.383333	1	0.013125
6.400000	1	0.015500
6.416667	1	0.016750
6.433333	1	0.019125
6.450000	1	0.021625
6.466667	1	0.023875
6.483333	1	0.026375
6.500000	1	0.027875
6.516667	1	0.030125
6.533333	1	0.032000
6.550000	1	0.034875
6.566667	1	0.037375
6.583333	1	0.039875
6.600000	1	0.041750
6.616667	1	0.044125
6.633333	1	0.045875
6.650000	1	0.047250
6.666667	1	0.048875
6.683333	1	0.050250
6.700000	1	0.052000
6.716667	1	0.054125
6.733333	1	0.055250
6.750000	1	0.056250
6.766667	1	0.057500
6.783333	1	0.058375
6.800000	1	0.058500
6.816667	1	0.058625
6.833333	1	0.059125
6.850000	1	0.058500
6.866667	1	0.058375
6.883333	1	0.058250
6.900000	1	0.057875
6.916667	1	0.057375
6.933333	1	0.056375
6.950000	1	0.055500
6.966667	1	0.054875
6.983333	1	0.054000
7.000000	1	0.052875
7.016667	1	0.052125
7.033333	1	0.050500
7.050000	1	0.048625
7.066667	1	0.046625
7.083333	1	0.044375
7.100000	1	0.043000
7.116667	1	0.041250
7.133333	1	0.039750
7.150000	1	0.037500
7.166667	1	0.035875
7.183333	1	0.034250
7.200000	1	0.031500
7.216667	1	0.029375
7.233333	1	0.026875
7.250000	1	0.024250
7.266667	1	0.021250
7.283333	1	0.018625
7.300000	1	0.016000
7.316667	1	0.013750
7.333333	1	0.011250
7.350000	1	0.008625
7.366667	1	0.006000
7.383333	1	0.003500
7.400000	1	0.000375
7.416667	1	-0.002750
7.433333	1	-0.006250
7.450000	1	-0.008500
7.466667	1	-0.010875
7.483333	1	-0.013375
7.500000	1	-0.016125
7.516667	1	-0.018500
7.533333	1	-0.021375
7.550000	1	-0.023875
7.566667	1	-0.026125
7.583333	1	-0.028500
7.600000	1	-0.030625
7.616667	1	-0.032750
7.633333	1	-0.035125
7.650000	1	-0.036125
7.666667	1	-0.038250
7.683333	1	-0.040000
7.700000	1	-0.041125
7.716667	1	-0.042125
7.733333	1	-0.043500
7.750000	1	-0.044625
7.766667	1	-0.045000
7.783333	1	-0.045750
7.800000	1	-0.046125
7.816667	1	-0.046875
7.833333	1	-0.048000
7.850000	1	-0.049125
7.866667	1	-0.049375
7.883333	1	-0.049000
7.900000	1	-0.049000
7.916667	1	-0.049125
7.933333	1	-0.048625
7.950000	1	-0.048250
7.966667	1	-0.047500
7.983333	1	-0.046750
8.000000	1	-0.047000
8.016667	1	-0.046000
8.033333	1	-0.045000
8.050000	1	-0.044625
8.066667	1	-0.044000
8.083333	1	-0.043375
8.100000	1	-0.042750
8.116667	1	-0.042250
8.133333	1	-0.041500
8.150000	1	-0.040750
8.166667	1	-0.040125
8.183333	1	-0.039250
8.200000	1	-0.038250
8.216667	1	-0.037125
8.233333	1	-0.036375
8.250000	1	-0.035875
8.266667	1	-0.035375
8.283333	1	-0.034750
8.300000	1	-0.033500
8.316667	1	-0.032750
8.333333	1	-0.031000
8.350000	1	-0.029875
8.366667	1	-0.028250
8.383333	1	-0.026750
8.400000	1	-0.025000
8.416667	1	-0.023250
8.433333	1	-0.021625
8.450000	1	-0.019750
8.466667	1	-0.018250
8.483333	1	-0.016250
8.500000	1	-0.014625
8.516667	1	-0.011875
8.533333	1	-0.010125
8.550000	1	-0.007500
8.566667	1	-0.005625
8.583333	1	-0.003375
8.600000	1	-0.001750
8.616667	1	0.000000
8.633333	1	0.001875
8.650000	1	0.004000
8.666667	1	0.006125
8.683333	1	0.008125
8.700000	1	0.010000
8.716667	1	0.012125
8.733333	1	0.013375
8.750000	1	0.015000
8.766667	1	0.015750
8.783333	1	0.016500
8.800000	1	0.018250
8.816667	1	0.019250
8.833333	1	0.020250
8.850000	1	0.020250
8.866667	1	0.021250
8.883333	1	0.022250
8.900000	1	0.023000
8.916667	1	0.023625
8.933333	1	0.024375
8.950000	1	0.025125
8.966667	1	0.025375
8.983333	1	0.025625
9.000000	1	0.025500
9.016667	1	0.026250
9.033333	1	0.026125
9.050000	1	0.026875
9.066667	1	0.026875
9.083333	1	0.027375
9.100000	1	0.027000
9.116667	1	0.027125
9.133333	1	0.027125
9.150000	1	0.027000
9.166667	1	0.026750
9.183333	1	0.026625
9.200000	1	0.026375
9.216667	1	0.026500
9.233333	1	0.026625
9.250000	1	0.026875
9.266667	1	0.026125
9.283333	1	0.026000
9.300000	1	0.026500
9.316667	1	0.026625
9.333333	1	0.026250
9.350000	1	0.026250
9.366667	1	0.026125
9.383333	1	0.026625
9.400000	1	0.027375
9.416667	1	0.028375
9.433333	1	0.029250
9.450000	1	0.030500
9.466667	1	0.033250
9.483333	1	0.035375
9.500000	1	0.038875
9.516667	1	0.042625
9.533333	1	0.047875
9.550000	1	0.053500
9.566667	1	0.059500
9.583333	1	0.066375
9.600000	1	0.074000
9.616667	1	0.084500
9.633333	1	0.096375
9.650000	1	0.110625
9.666667	1	0.126250
9.683333	1	0.143875
9.700000	1	0.162625
9.716667	1	0.182625
9.733333	1	0.202125
9.750000	1	0.222000
9.766667	1	0.240375
9.783333	1	0.255250
9.800000	1	0.265250
9.816667	1	0.270125
9.833333	1	0.269375
9.850000	1	0.260000
9.866667	1	0.241625
9.883333	1	0.212250
9.900000	1	0.174625
9.916667	1	0.141875
9.933333	1	0.139625
9.950000	1	0.213250
9.966667	1	0.418875
9.983333	1	0.820000
10.000000	1	1.477500
10.016667	1	2.447750
10.033333	1	3.770750
10.050000	1	5.472750
10.066667	1	7.566250
10.083333	1	10.052375
10.100000	1	12.918500
10.116667	1	16.134250
10.133333	1	19.653125
10.150000	1	23.409000
10.166667	1	27.309250
10.183333	1	31.234125
10.200000	1	35.032875
10.216667	1	38.524625
10.233333	1	41.505125
10.250000	1	43.768500
10.266667	1	45.141125
10.283333	1	45.508625
10.300000	1	44.846250
10.316667	1	43.226500
10.333333	1	40.807375
10.350000	1	37.808125
10.366667	1	34.467875
10.383333	1	31.009875
10.400000	1	27.615875
10.416667	1	24.420125
10.433333	1	21.501750
10.450000	1	18.900500
10.466667	1	16.616250
10.483333	1	14.631250
10.500000	1	12.915625
10.516667	1	11.436625
10.533333	1	10.157875
10.550000	1	9.049625
10.566667	1	8.086750
10.583333	1	7.247000
10.600000	1	6.513000
10.616667	1	5.871750
10.633333	1	5.312250
10.650000	1	4.826375
10.666667	1	4.403875
10.683333	1	4.037500
10.700000	1	3.719125
10.716667	1	3.442125
10.733333	1	3.199875
10.750000	1	2.986750
10.766667	1	2.798125
10.783333	1	2.630250
10.800000	1	2.479625
10.816667	1	2.343750
10.833333	1	2.220375
10.850000	1	2.108500
10.866667	1	2.006375
10.883333	1	1.912625
10.900000	1	1.826250
10.916667	1	1.746750
10.933333	1	1.674750
10.950000	1	1.607375
10.966667	1	1.546250
10.983333	1	1.489375
11.000000	1	1.437500
11.016667	1	1.389000
11.033333	1	1.344125
11.050000	1	1.302875
11.066667	1	1.265375
11.083333	1	1.230625
11.100000	1	1.197625
11.116667	1	1.167125
11.133333	1	1.139125
11.150000	1	1.112875
11.166667	1	1.088750
11.183333	1	1.066125
11.200000	1	1.045750
11.216667	1	1.026625
11.233333	1	1.008125
11.250000	1	0.990500
11.266667	1	0.973625
11.283333	1	0.957750
11.300000	1	0.943875
11.316667	1	0.930375
11.333333	1	0.917250
11.350000	1	0.904375
11.366667	1	0.892000
11.383333	1	0.880875
11.400000	1	0.870250
11.416667	1	0.860875
11.433333	1	0.852500
11.450000	1	0.844125
11.466667	1	0.836625
11.483333	1	0.831125
11.500000	1	0.826875
11.516667	1	0.822625
11.533333	1	0.819500
11.550000	1	0.816875
11.566667	1	0.814750
11.583333	1	0.813375
11.600000	1	0.812375
11.616667	1	0.812625
11.633333	1	0.813250
11.650000	1	0.814625
11.666667	1	0.815500
11.683333	1	0.816500
11.700000	1	0.816875
11.716667	1	0.817375
11.733333	1	0.817750
11.750000	1	0.818125
11.766667	1	0.819250
11.783333	1	0.820375
11.800000	1	0.822250
11.816667	1	0.824375
11.833333	1	0.827000
11.850000	1	0.830875
11.866667	1	0.836250
11.883333	1	0.842625
11.900000	1	0.850750
11.916667	1	0.860375
11.933333	1	0.871875
11.950000	1	0.885125
11.966667	1	0.900875
11.983333	1	0.919250
12.000000	1	0.940750
12.016667	1	0.964875
12.033333	1	0.992125
12.050000	1	1.024000
12.066667	1	1.060375
12.083333	1	1.103375
12.100000	1	1.154625
12.116667	1	1.215750
12.133333	1	1.288000
12.150000	1	1.374375
12.166667	1	1.477250
12.183333	1	1.599500
12.200000	1	1.742875
12.216667	1	1.908750
12.233333	1	2.098625
12.250000	1	2.314750
12.266667	1	2.557875
12.283333	1	2.828625
12.300000	1	3.129500
12.316667	1	3.462125
12.333333	1	3.829250
12.350000	1	4.232500
12.366667	1	4.676375
12.383333	1	5.161875
12.400000	1	5.690375
12.416667	1	6.258875
12.433333	1	6.863375
12.450000	1	7.497625
12.466667	1	8.148875
12.483333	1	8.801125
12.500000	1	9.433500
12.516667	1	10.023250
12.533333	1	10.546000
12.550000	1	10.982000
12.566667	1	11.316750
12.583333	1	11.545500
12.600000	1	11.671125
12.616667	1	11.703000
12.633333	1	11.654625
12.650000	1	11.539500
12.666667	1	11.372375
12.683333	1	11.164500
12.700000	1	10.926875
12.716667	1	10.669625
12.733333	1	10.399250
12.750000	1	10.122750
12.766667	1	9.843750
12.783333	1	9.566375
12.800000	1	9.293625
12.816667	1	9.027625
12.833333	1	8.768250
12.850000	1	8.515875
12.866667	1	8.271875
12.883333	1	8.034625
12.900000	1	7.803000
12.916667	1	7.576125
12.933333	1	7.352000
12.950000	1	7.130250
12.966667	1	6.908125
12.983333	1	6.685625
13.000000	1	6.460250
13.016667	1	6.229125
13.033333	1	5.991000
13.050000	1	5.744250
13.066667	1	5.485250
13.083333	1	5.211750
13.100000	1	4.920500
13.116667	1	4.608625
13.133333	1	4.274000
13.150000	1	3.915500
13.166667	1	3.538125
13.183333	1	3.151625
13.200000	1	2.773625
13.216667	1	2.423625
13.233333	1	2.118875
13.250000	1	1.866125
13.266667	1	1.663000
13.283333	1	1.502125
13.300000	1	1.374250
13.316667	1	1.271750
13.333333	1	1.187750
13.350000	1	1.118375
13.366667	1	1.060750
13.383333	1	1.012125
13.400000	1	0.969625
13.416667	1	0.932500
13.433333	1	0.900625
13.450000	1	0.872500
13.466667	1	0.847250
13.483333	1	0.826250
13.500000	1	0.808125
13.516667	1	0.792500
13.533333	1	0.779500
13.550000	1	0.769375
13.566667	1	0.761750
13.583333	1	0.756000
13.600000	1	0.752500
13.616667	1	0.750125
13.633333	1	0.749125
13.650000	1	0.748375
13.666667	1	0.748750
13.683333	1	0.748250
13.700000	1	0.746500
13.716667	1	0.744625
13.733333	1	0.740875
13.750000	1	0.736250
13.766667	1	0.729750
13.783333	1	0.722750
13.800000	1	0.714375
13.816667	1	0.704750
13.833333	1	0.694125
13.850000	1	0.683000
13.866667	1	0.671250
13.883333	1	0.659375
13.900000	1	0.647125
13.916667	1	0.634500
13.933333	1	0.622250
13.950000	1	0.610875
13.966667	1	0.600000
13.983333	1	0.589375
14.000000	1	0.579375
14.016667	1	0.569875
14.033333	1	0.561375
14.050000	1	0.554625
14.066667	1	0.547750
14.083333	1	0.542500
14.100000	1	0.538125
14.116667	1	0.534625
14.133333	1	0.532250
14.150000	1	0.532000
14.166667	1	0.533750
14.183333	1	0.538250
14.200000	1	0.545625
14.216667	1	0.554875
14.233333	1	0.568125
14.250000	1	0.585250
14.266667	1	0.608000
14.283333	1	0.636750
14.300000	1	0.671875
14.316667	1	0.715250
14.333333	1	0.768375
14.350000	1	0.832750
14.366667	1	0.908875
14.383333	1	0.999375
14.400000	1	1.106500
14.416667	1	1.231250
14.433333	1	1.376000
14.450000	1	1.543625
14.466667	1	1.736125
14.483333	1	1.956125
14.500000	1	2.208500
14.516667	1	2.496250
14.533333	1	2.824250
14.550000	1	3.200500
14.566667	1	3.633000
14.583333	1	4.132500
14.600000	1	4.714625
14.616667	1	5.400250
14.633333	1	6.214125
14.650000	1	7.189500
14.666667	1	8.363625
14.683333	1	9.778750
14.700000	1	11.477875
14.716667	1	13.503875
14.733333	1	15.894625
14.750000	1	18.676625
14.766667	1	21.859375
14.783333	1	25.428500
14.800000	1	29.348625
14.816667	1	33.553875
14.833333	1	37.954750
14.850000	1	42.431125
14.866667	1	46.843375
14.883333	1	51.036000
14.900000	1	54.854250
14.916667	1	58.155875
14.933333	1	60.819875
14.950000	1	62.757500
14.966667	1	63.914500
14.983333	1	64.275375
15.000000	1	63.860000
15.016667	1	62.717625
15.033333	1	60.923875
15.050000	1	58.572000
15.066667	1	55.767375
15.083333	1	52.620875
15.100000	1	49.240625
15.116667	1	45.725500
15.133333	1	42.165000
15.150000	1	38.634125
15.166667	1	35.197500
15.183333	1	31.906375
15.200000	1	28.792500
15.216667	1	25.878375
15.233333	1	23.176125
15.250000	1	20.692875
15.266667	1	18.426000
15.283333	1	16.372500
15.300000	1	14.523500
15.316667	1	12.868000
15.333333	1	11.393250
15.350000	1	10.086250
15.366667	1	8.932500
15.383333	1	7.918375
15.400000	1	7.030500
15.416667	1	6.255500
15.433333	1	5.581250
15.450000	1	4.997250
15.466667	1	4.492250
15.483333	1	4.057500
15.500000	1	3.684625
15.516667	1	3.367125
15.533333	1	3.096875
15.550000	1	2.867750
15.566667	1	2.673625
15.583333	1	2.509875
15.600000	1	2.370250
15.616667	1	2.250625
15.633333	1	2.147875
15.650000	1	2.056750
15.666667	1	1.974625
15.683333	1	1.899500
15.700000	1	1.830500
15.716667	1	1.764500
15.733333	1	1.701625
15.750000	1	1.641500
15.766667	1	1.584125
15.783333	1	1.528375
15.800000	1	1.475500
15.816667	1	1.424000
15.833333	1	1.374250
15.850000	1	1.327500
15.866667	1	1.282500
15.883333	1	1.240750
15.900000	1	1.201125
15.916667	1	1.163500
15.933333	1	1.129125
15.950000	1	1.096750
15.966667	1	1.066875
15.983333	1	1.040250
16.000000	1	1.016375
16.016667	1	0.994625
16.033333	1	0.975750
16.050000	1	0.960250
16.066667	1	0.947250
16.083333	1	0.937375
16.100000	1	0.931000
16.116667	1	0.926250
16.133333	1	0.924125
16.150000	1	0.923500
16.166667	1	0.924750
16.183333	1	0.926250
16.200000	1	0.927000
16.216667	1	0.928250
16.233333	1	0.928250
16.250000	1	0.927000
16.266667	1	0.924625
16.283333	1	0.920625
16.300000	1	0.914750
16.316667	1	0.907875
16.333333	1	0.898750
16.350000	1	0.888375
16.366667	1	0.878000
16.383333	1	0.866750
16.400000	1	0.855375
16.416667	1	0.844250
16.433333	1	0.833625
16.450000	1	0.823125
16.466667	1	0.813750
16.483333	1	0.805625
16.500000	1	0.797625
16.516667	1	0.790875
16.533333	1	0.785500
16.550000	1	0.782000
16.566667	1	0.778875
16.583333	1	0.777250
16.600000	1	0.776250
16.616667	1	0.777375
16.633333	1	0.778875
16.650000	1	0.781375
16.666667	1	0.784250
16.683333	1	0.787500
16.700000	1	0.791500
16.716667	1	0.796000
16.733333	1	0.801000
16.750000	1	0.805875
16.766667	1	0.810500
16.783333	1	0.814750
16.800000	1	0.818250
16.816667	1	0.821250
16.833333	1	0.824250
16.850000	1	0.825750
16.866667	1	0.827000
16.883333	1	0.827125
16.900000	1	0.827125
16.916667	1	0.826750
16.933333	1	0.826375
16.950000	1	0.825875
16.966667	1	0.825625
16.983333	1	0.825750
17.000000	1	0.826500
17.016667	1	0.827500
17.033333	1	0.829625
17.050000	1	0.831750
17.066667	1	0.833125
17.083333	1	0.834625
17.100000	1	0.836000
17.116667	1	0.837125
17.133333	1	0.837000
17.150000	1	0.836375
17.166667	1	0.834625
17.183333	1	0.831625
17.200000	1	0.827500
17.216667	1	0.822250
17.233333	1	0.816750
17.250000	1	0.809875
17.266667	1	0.802125
17.283333	1	0.793500
17.300000	1	0.784625
17.316667	1	0.775500
17.333333	1	0.766000
17.350000	1	0.756750
17.366667	1	0.747625
17.383333	1	0.738500
17.400000	1	0.730000
17.416667	1	0.722375
17.433333	1	0.715625
17.450000	1	0.709375
17.466667	1	0.704500
17.483333	1	0.700375
17.500000	1	0.698000
17.516667	1	0.696500
17.533333	1	0.696750
17.550000	1	0.698750
17.566667	1	0.703375
17.583333	1	0.708500
17.600000	1	0.714625
17.616667	1	0.722375
17.633333	1	0.731125
17.650000	1	0.741000
17.666667	1	0.751875
17.683333	1	0.763500
17.700000	1	0.776250
17.716667	1	0.789125
17.733333	1	0.802625
17.750000	1	0.815625
17.766667	1	0.828250
17.783333	1	0.842000
17.800000	1	0.854250
17.816667	1	0.865000
17.833333	1	0.874875
17.850000	1	0.883625
17.866667	1	0.890500
17.883333	1	0.895875
17.900000	1	0.900000
17.916667	1	0.900375
17.933333	1	0.899000
17.950000	1	0.896125
17.966667	1	0.891625
17.983333	1	0.885250
18.000000	1	0.877375
18.016667	1	0.869000
18.033333	1	0.858250
18.050000	1	0.846125
18.066667	1	0.833375
18.083333	1	0.819500
18.100000	1	0.805875
18.116667	1	0.791875
18.133333	1	0.777375
18.150000	1	0.763500
18.166667	1	0.749750
18.183333	1	0.737125
18.200000	1	0.724750
18.216667	1	0.712875
18.233333	1	0.701375
18.250000	1	0.690500
18.266667	1	0.680250
18.283333	1	0.670875
18.300000	1	0.662000
18.316667	1	0.654250
18.333333	1	0.648125
18.350000	1	0.643125
18.366667	1	0.639625
18.383333	1	0.637250
18.400000	1	0.634625
18.416667	1	0.632750
18.433333	1	0.631875
18.450000	1	0.631125
18.466667	1	0.631375
18.483333	1	0.631875
18.500000	1	0.632500
18.516667	1	0.633500
18.533333	1	0.634500
18.550000	1	0.635875
18.566667	1	0.638250
18.583333	1	0.640750
18.600000	1	0.643375
18.616667	1	0.646625
18.633333	1	0.650250
18.650000	1	0.654000
18.666667	1	0.658125
18.683333	1	0.662625
18.700000	1	0.667625
18.716667	1	0.673625
18.733333	1	0.679750
18.750000	1	0.686125
18.766667	1	0.692375
18.783333	1	0.700125
18.800000	1	0.708000
18.816667	1	0.716500
18.833333	1	0.725875
18.850000	1	0.735500
18.866667	1	0.746500
18.883333	1	0.757625
18.900000	1	0.770000
18.916667	1	0.784750
18.933333	1	0.800750
18.950000	1	0.819125
18.966667	1	0.839625
18.983333	1	0.862500
19.000000	1	0.887750
19.016667	1	0.915875
19.033333	1	0.946250
19.050000	1	0.978750
19.066667	1	1.013000
19.083333	1	1.050125
19.100000	1	1.088750
19.116667	1	1.128125
19.133333	1	1.168000
19.150000	1	1.206875
19.166667	1	1.245250
19.183333	1	1.281375
19.200000	1	1.314125
19.216667	1	1.342750
19.233333	1	1.366625
19.250000	1	1.385125
19.266667	1	1.398625
19.283333	1	1.405750
19.300000	1	1.407000
19.316667	1	1.401875
19.333333	1	1.390750
19.350000	1	1.374125
19.366667	1	1.351875
19.383333	1	1.325375
19.400000	1	1.294375
19.416667	1	1.259750
19.433333	1	1.222875
19.450000	1	1.182375
19.466667	1	1.141250
19.483333	1	1.100250
19.500000	1	1.059125
19.516667	1	1.018625
19.533333	1	0.978500
19.550000	1	0.940375
19.566667	1	0.904125
19.583333	1	0.870625
19.600000	1	0.839375
19.616667	1	0.811500
19.633333	1	0.786375
19.650000	1	0.765000
19.666667	1	0.747375
19.683333	1	0.733500
19.700000	1	0.724000
19.716667	1	0.718750
19.733333	1	0.718375
19.750000	1	0.722250
19.766667	1	0.730750
19.783333	1	0.743375
19.800000	1	0.761125
19.816667	1	0.781250
19.833333	1	0.805500
19.850000	1	0.832375
19.866667	1	0.861750
19.883333	1	0.891125
19.900000	1	0.921750
19.916667	1	0.952500
19.933333	1	0.982125
19.950000	1	1.010125
19.966667	1	1.035250
19.983333	1	1.057500
20.000000	1	1.076000
20.016667	1	1.090375
20.033333	1	1.101125
20.050000	1	1.107875
20.066667	1	1.110875
20.083333	1	1.110375
20.100000	1	1.107250
20.116667	1	1.101250
20.133333	1	1.093000
20.150000	1	1.083500
20.166667	1	1.072875
20.183333	1	1.062250
20.200000	1	1.052125
20.216667	1	1.043000
20.233333	1	1.035375
20.250000	1	1.029375
20.266667	1	1.025000
20.283333	1	1.023625
20.300000	1	1.024125
20.316667	1	1.028125
20.333333	1	1.034375
20.350000	1	1.042875
20.366667	1	1.053125
20.383333	1	1.065000
20.400000	1	1.077500
20.416667	1	1.089625
20.433333	1	1.101625
20.450000	1	1.112000
20.466667	1	1.121250
20.483333	1	1.128375
20.500000	1	1.133625
20.516667	1	1.135500
20.533333	1	1.135500
20.550000	1	1.133000
20.566667	1	1.128750
20.583333	1	1.121500
20.600000	1	1.112125
20.616667	1	1.101375
20.633333	1	1.090750
20.650000	1	1.080500
20.666667	1	1.072125
20.683333	1	1.065500
20.700000	1	1.061875
20.716667	1	1.061875
20.733333	1	1.065875
20.750000	1	1.075000
20.766667	1	1.088750
20.783333	1	1.106875
20.800000	1	1.129375
20.816667	1	1.155250
20.833333	1	1.185125
20.850000	1	1.216125
20.866667	1	1.248250
20.883333	1	1.279500
20.900000	1	1.309125
20.916667	1	1.335375
20.933333	1	1.356625
20.950000	1	1.373125
20.966667	1	1.382125
20.983333	1	1.384000
21.000000	1	1.378000
21.016667	1	1.363625
21.033333	1	1.343125
21.050000	1	1.315625
21.066667	1	1.281875
21.083333	1	1.243125
21.100000	1	1.199000
21.116667	1	1.151375
21.133333	1	1.102125
21.150000	1	1.050625
21.166667	1	0.999375
21.183333	1	0.947375
21.200000	1	0.896750
21.216667	1	0.847125
21.233333	1	0.799625
21.250000	1	0.754125
21.266667	1	0.712000
21.283333	1	0.672250
21.300000	1	0.636500
21.316667	1	0.602375
21.333333	1	0.571500
21.350000	1	0.543500
21.366667	1	0.517875
21.383333	1	0.495500
21.400000	1	0.474875
21.416667	1	0.456125
21.433333	1	0.440500
21.450000	1	0.426625
21.466667	1	0.414000
21.483333	1	0.402625
21.500000	1	0.393250
21.516667	1	0.385375
21.533333	1	0.377625
21.550000	1	0.371375
21.566667	1	0.365750
21.583333	1	0.361125
21.600000	1	0.356250
21.616667	1	0.352500
21.633333	1	0.349000
21.650000	1	0.345375
21.666667	1	0.342000
21.683333	1	0.339000
21.700000	1	0.336750
21.716667	1	0.334625
21.733333	1	0.333000
21.750000	1	0.331500
21.766667	1	0.330000
21.783333	1	0.329500
21.800000	1	0.329500
21.816667	1	0.329875
21.833333	1	0.331250
21.850000	1	0.332125
21.866667	1	0.334000
21.883333	1	0.336000
21.900000	1	0.338750
21.916667	1	0.341000
21.933333	1	0.344875
21.950000	1	0.348125
21.966667	1	0.351250
21.983333	1	0.354375
22.000000	1	0.357000
22.016667	1	0.359125
22.033333	1	0.361500
22.050000	1	0.363500
22.066667	1	0.364375
22.083333	1	0.365250
22.100000	1	0.366000
22.116667	1	0.366500
22.133333	1	0.366125
22.150000	1	0.365750
22.166667	1	0.365250
22.183333	1	0.364500
22.200000	1	0.363750
22.216667	1	0.362750
22.233333	1	0.362625
22.250000	1	0.362500
22.266667	1	0.362375
22.283333	1	0.363125
22.300000	1	0.364125
22.316667	1	0.365875
22.333333	1	0.367875
22.350000	1	0.370000
22.366667	1	0.372875
22.383333	1	0.376750
22.400000	1	0.381500
22.416667	1	0.386125
22.433333	1	0.390875
22.450000	1	0.396125
22.466667	1	0.401250
22.483333	1	0.406500
22.500000	1	0.412125
22.516667	1	0.417625
22.533333	1	0.423625
22.550000	1	0.429375
22.566667	1	0.435375
22.583333	1	0.439875
22.600000	1	0.445125
22.616667	1	0.449125
22.633333	1	0.453000
22.650000	1	0.456625
22.666667	1	0.460375
22.683333	1	0.463125
22.700000	1	0.465250
22.716667	1	0.467500
22.733333	1	0.468250
22.750000	1	0.468625
22.766667	1	0.468375
22.783333	1	0.467000
22.800000	1	0.464375
22.816667	1	0.461375
22.833333	1	0.458000
22.850000	1	0.454000
22.866667	1	0.449375
22.883333	1	0.444625
22.900000	1	0.439750
22.916667	1	0.434625
22.933333	1	0.428625
22.950000	1	0.423500
22.966667	1	0.417750
22.983333	1	0.411625
23.000000	1	0.406750
23.016667	1	0.402000
23.033333	1	0.397250
23.050000	1	0.393125
23.066667	1	0.389125
23.083333	1	0.386625
23.100000	1	0.384750
23.116667	1	0.383375
23.133333	1	0.383000
23.150000	1	0.384500
23.166667	1	0.386750
23.183333	1	0.390250
23.200000	1	0.394625
23.216667	1	0.400250
23.233333	1	0.407750
23.250000	1	0.416750
23.266667	1	0.427875
23.283333	1	0.439625
23.300000	1	0.454250
23.316667	1	0.470500
23.333333	1	0.488125
23.350000	1	0.508750
23.366667	1	0.531000
23.383333	1	0.555750
23.400000	1	0.583750
23.416667	1	0.615250
23.433333	1	0.650000
23.450000	1	0.688625
23.466667	1	0.732500
23.483333	1	0.781500
23.500000	1	0.835500
23.516667	1	0.896500
23.533333	1	0.965250
23.550000	1	1.042000
23.566667	1	1.128125
23.583333	1	1.225125
23.600000	1	1.333750
23.616667	1	1.454500
23.633333	1	1.587500
23.650000	1	1.733750
23.666667	1	1.892500
23.683333	1	2.065000
23.700000	1	2.249000
23.716667	1	2.444250
23.733333	1	2.649250
23.750000	1	2.861125
23.766667	1	3.077500
23.783333	1	3.295250
23.800000	1	3.509875
23.816667	1	3.719375
23.833333	1	3.917250
23.850000	1	4.101875
23.866667	1	4.269000
23.883333	1	4.414000
23.900000	1	4.535750
23.916667	1	4.630375
23.933333	1	4.696000
23.950000	1	4.732750
23.966667	1	4.739500
23.983333	1	4.716500
24.000000	1	4.665625
24.016667	1	4.587250
24.033333	1	4.484250
24.050000	1	4.359125
24.066667	1	4.215500
24.083333	1	4.055625
24.100000	1	3.882625
24.116667	1	3.699875
24.133333	1	3.511000
24.150000	1	3.318875
24.166667	1	3.126000
24.183333	1	2.935000
24.200000	1	2.747875
24.216667	1	2.566375
24.233333	1	2.393375
24.250000	1	2.229250
24.266667	1	2.074875
24.283333	1	1.930000
24.300000	1	1.795250
24.316667	1	1.671125
24.333333	1	1.556250
24.350000	1	1.452000
24.366667	1	1.357500
24.383333	1	1.271500
24.400000	1	1.194750
24.416667	1	1.125875
24.433333	1	1.064125
24.450000	1	1.008125
24.466667	1	0.957875
24.483333	1	0.912875
24.500000	1	0.872125
24.516667	1	0.834500
24.533333	1	0.800375
24.550000	1	0.769250
24.566667	1	0.740125
24.583333	1	0.712625
24.600000	1	0.687125
24.616667	1	0.662000
24.633333	1	0.638625
24.650000	1	0.616000
24.666667	1	0.594250
24.683333	1	0.572375
24.700000	1	0.551250
24.716667	1	0.531000
24.733333	1	0.511000
24.750000	1	0.491125
24.766667	1	0.471125
24.783333	1	0.451625
24.800000	1	0.432875
24.816667	1	0.415250
24.833333	1	0.397875
24.850000	1	0.381375
24.866667	1	0.366375
24.883333	1	0.351500
24.900000	1	0.337000
24.916667	1	0.323750
24.933333	1	0.311250
24.950000	1	0.300125
24.966667	1	0.289125
24.983333	1	0.280000
25.000000	1	0.270875
25.016667	1	0.263750
25.033333	1	0.257250
25.050000	1	0.251250
25.066667	1	0.246375
25.083333	1	0.242375
25.100000	1	0.238875
25.116667	1	0.235875
25.133333	1	0.233875
25.150000	1	0.232375
25.166667	1	0.232375
25.183333	1	0.231750
25.200000	1	0.231875
25.216667	1	0.232500
25.233333	1	0.233750
25.250000	1	0.235750
25.266667	1	0.237875
25.283333	1	0.240125
25.300000	1	0.242500
25.316667	1	0.245625
25.333333	1	0.248375
25.350000	1	0.251000
25.366667	1	0.254750
25.383333	1	0.258500
25.400000	1	0.261375
25.416667	1	0.264500
25.433333	1	0.267750
25.450000	1	0.270875
25.466667	1	0.273750
25.483333	1	0.276500
25.500000	1	0.278625
25.516667	1	0.280750
25.533333	1	0.282125
25.550000	1	0.283375
25.566667	1	0.285000
25.583333	1	0.286625
25.600000	1	0.287125
25.616667	1	0.287750
25.633333	1	0.287875
25.650000	1	0.287500
25.666667	1	0.287125
25.683333	1	0.286875
25.700000	1	0.287000
25.716667	1	0.285875
25.733333	1	0.284875
25.750000	1	0.282750
25.766667	1	0.281000
25.783333	1	0.278875
25.800000	1	0.276250
25.816667	1	0.273500
25.833333	1	0.271125
25.850000	1	0.268250
25.866667	1	0.263875
25.883333	1	0.260000
25.900000	1	0.256125
25.916667	1	0.251500
25.933333	1	0.246750
25.950000	1	0.241625
25.966667	1	0.235875
25.983333	1	0.230750
26.000000	1	0.225125
26.016667	1	0.219375
26.033333	1	0.213375
26.050000	1	0.207125
26.066667	1	0.200375
26.083333	1	0.193875
26.100000	1	0.187875
26.116667	1	0.182875
26.133333	1	0.177000
26.150000	1	0.171500
26.166667	1	0.167125
26.183333	1	0.162375
26.200000	1	0.158875
26.216667	1	0.155500
26.233333	1	0.153250
26.250000	1	0.150875
26.266667	1	0.149500
26.283333	1	0.148875
26.300000	1	0.149000
26.316667	1	0.149375
26.333333	1	0.150125
26.350000	1	0.150750
26.366667	1	0.151500
26.383333	1	0.153250
26.400000	1	0.155625
26.416667	1	0.158625
26.433333	1	0.161250
26.450000	1	0.163250
26.466667	1	0.165500
26.483333	1	0.167250
26.500000	1	0.168500
26.516667	1	0.169625
26.533333	1	0.170750
26.550000	1	0.171875
26.566667	1	0.172125
26.583333	1	0.172750
26.600000	1	0.172750
26.616667	1	0.172750
26.633333	1	0.172125
26.650000	1	0.170750
26.666667	1	0.170000
26.683333	1	0.168500
26.700000	1	0.167500
26.716667	1	0.166250
26.733333	1	0.165375
26.750000	1	0.164250
26.766667	1	0.163125
26.783333	1	0.161750
26.800000	1	0.161625
26.816667	1	0.161250
26.833333	1	0.161375
26.850000	1	0.161750
26.866667	1	0.162000
26.883333	1	0.163125
26.900000	1	0.163875
26.916667	1	0.166500
26.933333	1	0.168125
26.950000	1	0.170750
26.966667	1	0.174500
26.983333	1	0.178875
27.000000	1	0.183375
27.016667	1	0.188125
27.033333	1	0.193750
27.050000	1	0.199875
27.066667	1	0.206375
27.083333	1	0.213375
27.100000	1	0.220375
27.116667	1	0.228000
27.133333	1	0.235875
27.150000	1	0.245250
27.166667	1	0.255375
27.183333	1	0.265750
27.200000	1	0.276875
27.216667	1	0.289125
27.233333	1	0.301750
27.250000	1	0.315250
27.266667	1	0.328875
27.283333	1	0.344125
27.300000	1	0.360625
27.316667	1	0.377500
27.333333	1	0.396125
27.350000	1	0.416000
27.366667	1	0.437000
27.383333	1	0.459500
27.400000	1	0.483500
27.416667	1	0.509000
27.433333	1	0.536750
27.450000	1	0.566500
27.466667	1	0.598875
27.483333	1	0.634875
27.500000	1	0.673625
27.516667	1	0.715875
27.533333	1	0.762250
27.550000	1	0.814000
27.566667	1	0.870875
27.583333	1	0.932875
27.600000	1	1.000125
27.616667	1	1.072750
27.633333	1	1.153750
27.650000	1	1.241000
27.666667	1	1.335000
27.683333	1	1.436750
27.700000	1	1.545500
27.716667	1	1.661500
27.733333	1	1.783625
27.750000	1	1.912125
27.766667	1	2.045625
27.783333	1	2.182750
27.800000	1	2.322875
27.816667	1	2.464750
27.833333	1	2.606875
27.850000	1	2.747500
27.866667	1	2.884500
27.883333	1	3.016000
27.900000	1	3.141000
27.916667	1	3.257250
27.933333	1	3.362625
27.950000	1	3.456000
27.966667	1	3.534375
27.983333	1	3.597375
28.000000	1	3.644250
28.016667	1	3.673250
28.033333	1	3.684625
28.050000	1	3.678000
28.066667	1	3.653000
28.083333	1	3.610625
28.100000	1	3.550125
28.116667	1	3.473625
28.133333	1	3.381250
28.150000	1	3.276000
28.166667	1	3.158125
28.183333	1	3.030125
28.200000	1	2.892750
28.216667	1	2.748875
28.233333	1	2.600125
28.250000	1	2.447125
28.266667	1	2.292875
28.283333	1	2.137875
28.300000	1	1.984500
28.316667	1	1.833125
28.333333	1	1.685125
28.350000	1	1.541875
28.366667	1	1.403375
28.383333	1	1.271375
28.400000	1	1.144125
28.416667	1	1.022750
28.433333	1	0.907000
28.450000	1	0.798000
28.466667	1	0.693375
28.483333	1	0.594000
28.500000	1	0.500125
28.516667	1	0.410000
28.533333	1	0.323875
28.550000	1	0.241625
28.566667	1	0.163125
28.583333	1	0.087500
28.600000	1	0.014000
28.616667	1	-0.056875
28.633333	1	-0.125000
28.650000	1	-0.191500
28.666667	1	-0.256875
28.683333	1	-0.320625
28.700000	1	-0.382250
28.716667	1	-0.442625
28.733333	1	-0.499875
28.750000	1	-0.555625
28.766667	1	-0.609250
28.783333	1	-0.660125
28.800000	1	-0.707375
28.816667	1	-0.751125
28.833333	1	-0.791625
28.850000	1	-0.828500
28.866667	1	-0.862375
28.883333	1	-0.891750
28.900000	1	-0.916375
28.916667	1	-0.937000
28.933333	1	-0.951500
28.950000	1	-0.961250
28.966667	1	-0.967000
28.983333	1	-0.967500
29.000000	1	-0.962625
29.016667	1	-0.953000
29.033333	1	-0.939625
29.050000	1	-0.921625
29.066667	1	-0.899375
29.083333	1	-0.872500
29.100000	1	-0.842000
29.116667	1	-0.808375
29.133333	1	-0.772250
29.150000	1	-0.732875
29.166667	1	-0.692125
29.183333	1	-0.649500
29.200000	1	-0.605250
29.216667	1	-0.559000
29.233333	1	-0.511875
29.250000	1	-0.465000
29.266667	1	-0.417875
29.283333	1	-0.370375
29.300000	1	-0.324125
29.316667	1	-0.277250
29.333333	1	-0.232125
29.350000	1	-0.188500
29.366667	1	-0.145625
29.383333	1	-0.103625
29.400000	1	-0.063500
29.416667	1	-0.024625
29.433333	1	0.012000
29.450000	1	0.047125
29.466667	1	0.080750
29.483333	1	0.112500
29.500000	1	0.141875
29.516667	1	0.169250
29.533333	1	0.194750
29.550000	1	0.218500
29.566667	1	0.240500
29.583333	1	0.261500
29.600000	1	0.280000
29.616667	1	0.297000
29.633333	1	0.311750
29.650000	1	0.325000
29.666667	1	0.336250
29.683333	1	0.346500
29.700000	1	0.354375
29.716667	1	0.361000
29.733333	1	0.366625
29.750000	1	0.371250
29.766667	1	0.375125
29.783333	1	0.377375
29.800000	1	0.378875
29.816667	1	0.379750
29.833333	1	0.379375
29.850000	1	0.377875
29.866667	1	0.376250
29.883333	1	0.375125
29.900000	1	0.373000
29.916667	1	0.371250
29.933333	1	0.367625
29.950000	1	0.365500
29.966667	1	0.362875
29.983333	1	0.359875
30.000000	1	0.357750
30.016667	1	0.355000
30.033333	1	0.353000
30.050000	1	0.350500
30.066667	1	0.348375
30.083333	1	0.346625
30.100000	1	0.345125
30.116667	1	0.343750
30.133333	1	0.342875
30.150000	1	0.341875
30.166667	1	0.342000
30.183333	1	0.341500
30.200000	1	0.342250
30.216667	1	0.342750
30.233333	1	0.343625
30.250000	1	0.344500
30.266667	1	0.346125
30.283333	1	0.348125
30.300000	1	0.350625
30.316667	1	0.353125
30.333333	1	0.356125
30.350000	1	0.359750
30.366667	1	0.364500
30.383333	1	0.369750
30.400000	1	0.376250
30.416667	1	0.383500
30.433333	1	0.390500
30.450000	1	0.398875
30.466667	1	0.408500
30.483333	1	0.418250
30.500000	1	0.429500
30.516667	1	0.441625
30.533333	1	0.454125
30.550000	1	0.468500
30.566667	1	0.483375
30.583333	1	0.498000
30.600000	1	0.514625
30.616667	1	0.531125
30.633333	1	0.548250
30.650000	1	0.564875
30.666667	1	0.581750
30.683333	1	0.598250
30.700000	1	0.614625
30.716667	1	0.629625
30.733333	1	0.643750
30.750000	1	0.657125
30.766667	1	0.668500
30.783333	1	0.678875
30.800000	1	0.687875
30.816667	1	0.695000
30.833333	1	0.699375
30.850000	1	0.701250
30.866667	1	0.701625
30.883333	1	0.699875
30.900000	1	0.695625
30.916667	1	0.688750
30.933333	1	0.680375
30.950000	1	0.670625
30.966667	1	0.657875
30.983333	1	0.644125
31.000000	1	0.628875
31.016667	1	0.611625
31.033333	1	0.593125
31.050000	1	0.573375
31.066667	1	0.552875
31.083333	1	0.533125
31.100000	1	0.512125
31.116667	1	0.491250
31.133333	1	0.470500
31.150000	1	0.449750
31.166667	1	0.429375
31.183333	1	0.408875
31.200000	1	0.389125
31.216667	1	0.370250
31.233333	1	0.352250
31.250000	1	0.335375
31.266667	1	0.319250
31.283333	1	0.303625
31.300000	1	0.288750
31.316667	1	0.275250
31.333333	1	0.262125
31.350000	1	0.250625
31.366667	1	0.240250
31.383333	1	0.231125
31.400000	1	0.221875
31.416667	1	0.213625
31.433333	1	0.206625
31.450000	1	0.200500
31.466667	1	0.194875
31.483333	1	0.189625
31.500000	1	0.185375
31.516667	1	0.181250
31.533333	1	0.179500
31.550000	1	0.176750
31.566667	1	0.174375
31.583333	1	0.173000
31.600000	1	0.172375
31.616667	1	0.171375
31.633333	1	0.171250
31.650000	1	0.171500
31.666667	1	0.172750
31.683333	1	0.174000
31.700000	1	0.176625
31.716667	1	0.178750
31.733333	1	0.181125
31.750000	1	0.184250
31.766667	1	0.188000
31.783333	1	0.190750
31.800000	1	0.194250
31.816667	1	0.197625
31.833333	1	0.201625
31.850000	1	0.205125
31.866667	1	0.209375
31.883333	1	0.213625
31.900000	1	0.217375
31.916667	1	0.221250
31.933333	1	0.224875
31.950000	1	0.228125
31.966667	1	0.231875
31.983333	1	0.235500
32.000000	1	0.238250
32.016667	1	0.240625
32.033333	1	0.242125
32.050000	1	0.244125
32.066667	1	0.245250
32.083333	1	0.246375
32.100000	1	0.246250
32.116667	1	0.245875
32.133333	1	0.245250
32.150000	1	0.244375
32.166667	1	0.242500
32.183333	1	0.240250
32.200000	1	0.238375
32.216667	1	0.236000
32.233333	1	0.232875
32.250000	1	0.230000
32.266667	1	0.227000
32.283333	1	0.223875
32.300000	1	0.220375
32.316667	1	0.216875
32.333333	1	0.213375
32.350000	1	0.209000
32.366667	1	0.205875
32.383333	1	0.202375
32.400000	1	0.199250
32.416667	1	0.196375
32.433333	1	0.193125
32.450000	1	0.190250
32.466667	1	0.187250
32.483333	1	0.184500
32.500000	1	0.182000
32.516667	1	0.179250
32.533333	1	0.176000
32.550000	1	0.172875
32.566667	1	0.170125
32.583333	1	0.167750
32.600000	1	0.164875
32.616667	1	0.162125
32.633333	1	0.159000
32.650000	1	0.155375
32.666667	1	0.151375
32.683333	1	0.147500
32.700000	1	0.143125
32.716667	1	0.139000
32.733333	1	0.134250
32.750000	1	0.130000
32.766667	1	0.125125
32.783333	1	0.119625
32.800000	1	0.113625
32.816667	1	0.108625
32.833333	1	0.103250
32.850000	1	0.097250
32.866667	1	0.091375
32.883333	1	0.085625
32.900000	1	0.080500
32.916667	1	0.074750
32.933333	1	0.069250
32.950000	1	0.063500
32.966667	1	0.058250
32.983333	1	0.053125
33.000000	1	0.048500
33.016667	1	0.044000
33.033333	1	0.039500
33.050000	1	0.035125
33.066667	1	0.030750
33.083333	1	0.026875
33.100000	1	0.022750
33.116667	1	0.019125
33.133333	1	0.015625
33.150000	1	0.012750
33.166667	1	0.010375
33.183333	1	0.007750
33.200000	1	0.005000
33.216667	1	0.002750
33.233333	1	0.000625
33.250000	1	-0.001125
33.266667	1	-0.002750
33.283333	1	-0.004250
33.300000	1	-0.005875
33.316667	1	-0.007500
33.333333	1	-0.009000
33.350000	1	-0.009875
33.366667	1	-0.011125
33.383333	1	-0.012375
33.400000	1	-0.013875
33.416667	1	-0.014750
33.433333	1	-0.016375
33.450000	1	-0.017500
33.466667	1	-0.018625
33.483333	1	-0.020000
33.500000	1	-0.021250
33.516667	1	-0.022125
33.533333	1	-0.023375
33.550000	1	-0.024000
33.566667	1	-0.024250
33.583333	1	-0.024500
33.600000	1	-0.025500
33.616667	1	-0.027000
33.633333	1	-0.028250
33.650000	1	-0.028250
33.666667	1	-0.029000
33.683333	1	-0.029375
33.700000	1	-0.029125
33.716667	1	-0.028625
33.733333	1	-0.028875
33.750000	1	-0.028625
33.766667	1	-0.028625
33.783333	1	-0.028375
33.800000	1	-0.028250
33.816667	1	-0.028250
33.833333	1	-0.028375
33.850000	1	-0.026875
33.866667	1	-0.026250
33.883333	1	-0.025125
33.900000	1	-0.024875
33.916667	1	-0.024125
33.933333	1	-0.023375
33.950000	1	-0.022375
33.966667	1	-0.021500
33.983333	1	-0.019750
34.000000	1	-0.019000
34.016667	1	-0.018000
34.033333	1	-0.017125
34.050000	1	-0.015250
34.066667	1	-0.013875
34.083333	1	-0.012125
34.100000	1	-0.011250
34.116667	1	-0.010375
34.133333	1	-0.009000
34.150000	1	-0.007250
34.166667	1	-0.006125
34.183333	1	-0.004625
34.200000	1	-0.003625
34.216667	1	-0.002000
34.233333	1	-0.001500
34.250000	1	0.000000
34.266667	1	0.001250
34.283333	1	0.002250
34.300000	1	0.003125
34.316667	1	0.003625
34.333333	1	0.004500
34.350000	1	0.004750
34.366667	1	0.005625
34.383333	1	0.006875
34.400000	1	0.007500
34.416667	1	0.008250
34.433333	1	0.008750
34.450000	1	0.008875
34.466667	1	0.008750
34.483333	1	0.009375
34.500000	1	0.009625
34.516667	1	0.009625
34.533333	1	0.010250
34.550000	1	0.010625
34.566667	1	0.010375
34.583333	1	0.010250
34.600000	1	0.010000
34.616667	1	0.009500
34.633333	1	0.010125
34.650000	1	0.010125
34.666667	1	0.010500
34.683333	1	0.010375
34.700000	1	0.010125
34.716667	1	0.011125
34.733333	1	0.011500
34.750000	1	0.012125
34.766667	1	0.012875
34.783333	1	0.013625
34.800000	1	0.014750
34.816667	1	0.016125
34.833333	1	0.018000
34.850000	1	0.019500
34.866667	1	0.020750
34.883333	1	0.022625
34.900000	1	0.025000
34.916667	1	0.027375
34.933333	1	0.030000
34.950000	1	0.032875
34.966667	1	0.035375
34.983333	1	0.038000
35.000000	1	0.041125
35.016667	1	0.044375
35.033333	1	0.047125
35.050000	1	0.050500
35.066667	1	0.053625
35.083333	1	0.057125
35.100000	1	0.060625
35.116667	1	0.064500
35.133333	1	0.068500
35.150000	1	0.072375
35.166667	1	0.076000
35.183333	1	0.080125
35.200000	1	0.084750
35.216667	1	0.088625
35.233333	1	0.093000
35.250000	1	0.097250
35.266667	1	0.101250
35.283333	1	0.105750
35.300000	1	0.110000
35.316667	1	0.114500
35.333333	1	0.117875
35.350000	1	0.121500
35.366667	1	0.125875
35.383333	1	0.129750
35.400000	1	0.133500
35.416667	1	0.137000
35.433333	1	0.140125
35.450000	1	0.143125
35.466667	1	0.145750
35.483333	1	0.148750
35.500000	1	0.150625
35.516667	1	0.153125
35.533333	1	0.155875
35.550000	1	0.158125
35.566667	1	0.159250
35.583333	1	0.160500
35.600000	1	0.161375
35.616667	1	0.162250
35.633333	1	0.163125
35.650000	1	0.164000
35.666667	1	0.163750
35.683333	1	0.164625
35.700000	1	0.164750
35.716667	1	0.164750
35.733333	1	0.164125
35.750000	1	0.164250
35.766667	1	0.163125
35.783333	1	0.162500
35.800000	1	0.161375
35.816667	1	0.160125
35.833333	1	0.159875
35.850000	1	0.158500
35.866667	1	0.157500
35.883333	1	0.156250
35.900000	1	0.154750
35.916667	1	0.153500
35.933333	1	0.153000
35.950000	1	0.152000
35.966667	1	0.151375
35.983333	1	0.149750
36.000000	1	0.148625
36.016667	1	0.147000
36.033333	1	0.146125
36.050000	1	0.145000
36.066667	1	0.144250
36.083333	1	0.143000
36.100000	1	0.141875
36.116667	1	0.140750
36.133333	1	0.140250
36.150000	1	0.139000
36.166667	1	0.136875
36.183333	1	0.135375
36.200000	1	0.134250
36.216667	1	0.132750
36.233333	1	0.130875
36.250000	1	0.129500
36.266667	1	0.128000
36.283333	1	0.126875
36.300000	1	0.125250
36.316667	1	0.124125
36.333333	1	0.122500
36.350000	1	0.120375
36.366667	1	0.118250
36.383333	1	0.116125
36.400000	1	0.113375
36.416667	1	0.111375
36.433333	1	0.109000
36.450000	1	0.106500
36.466667	1	0.103875
36.483333	1	0.102125
36.500000	1	0.099250
36.516667	1	0.096625
36.533333	1	0.094500
36.550000	1	0.091125
36.566667	1	0.087875
36.583333	1	0.084625
36.600000	1	0.081250
36.616667	1	0.078000
36.633333	1	0.074125
36.650000	1	0.070375
36.666667	1	0.066875
36.683333	1	0.062875
36.700000	1	0.059500
36.716667	1	0.055500
36.733333	1	0.052000
36.750000	1	0.047625
36.766667	1	0.043625
36.783333	1	0.039875
36.800000	1	0.036625
36.816667	1	0.032875
36.833333	1	0.028875
36.850000	1	0.024625
36.866667	1	0.021625
36.883333	1	0.017500
36.900000	1	0.014000
36.916667	1	0.010500
36.933333	1	0.007250
36.950000	1	0.004125
36.966667	1	0.001000
36.983333	1	-0.001625
37.000000	1	-0.004000
37.016667	1	-0.006625
37.033333	1	-0.009875
37.050000	1	-0.011875
37.066667	1	-0.014125
37.083333	1	-0.015375
37.100000	1	-0.017750
37.116667	1	-0.019250
37.133333	1	-0.019625
37.150000	1	-0.021250
37.166667	1	-0.022125
37.183333	1	-0.023375
37.200000	1	-0.023875
37.216667	1	-0.025625
37.233333	1	-0.026125
37.250000	1	-0.026875
37.266667	1	-0.026750
37.283333	1	-0.027250
37.300000	1	-0.026750
37.316667	1	-0.026500
37.333333	1	-0.026500
37.350000	1	-0.026750
37.366667	1	-0.026500
37.383333	1	-0.026000
37.400000	1	-0.025750
37.416667	1	-0.025375
37.433333	1	-0.025000
37.450000	1	-0.025000
37.466667	1	-0.024500
37.483333	1	-0.023875
37.500000	1	-0.022875
37.516667	1	-0.022375
37.533333	1	-0.022000
37.550000	1	-0.022375
37.566667	1	-0.021875
37.583333	1	-0.021000
37.600000	1	-0.020875
37.616667	1	-0.020500
37.633333	1	-0.020000
37.650000	1	-0.019500
37.666667	1	-0.018500
37.683333	1	-0.017750
37.700000	1	-0.016875
37.716667	1	-0.016375
37.733333	1	-0.016625
37.750000	1	-0.016125
37.766667	1	-0.016375
37.783333	1	-0.016375
37.800000	1	-0.016125
37.816667	1	-0.016000
37.833333	1	-0.016000
37.850000	1	-0.015750
37.866667	1	-0.015625
37.883333	1	-0.015625
37.900000	1	-0.015250
37.916667	1	-0.015375
37.933333	1	-0.015500
37.950000	1	-0.015375
37.966667	1	-0.015250
37.983333	1	-0.015125
38.000000	1	-0.014125
38.016667	1	-0.014125
38.033333	1	-0.013625
38.050000	1	-0.013500
38.066667	1	-0.013125
38.083333	1	-0.012750
38.100000	1	-0.012250
38.116667	1	-0.012000
38.133333	1	-0.012000
38.150000	1	-0.012625
38.166667	1	-0.012750
38.183333	1	-0.013375
38.200000	1	-0.013000
38.216667	1	-0.013000
38.233333	1	-0.013375
38.250000	1	-0.013875
38.266667	1	-0.014875
38.283333	1	-0.015500
38.300000	1	-0.016125
38.316667	1	-0.016875
38.333333	1	-0.017500
38.350000	1	-0.018500
38.366667	1	-0.018875
38.383333	1	-0.019250
38.400000	1	-0.019625
38.416667	1	-0.019750
38.433333	1	-0.020250
38.450000	1	-0.020250
38.466667	1	-0.020250
38.483333	1	-0.020750
38.500000	1	-0.020750
38.516667	1	-0.021125
38.533333	1	-0.021000
38.550000	1	-0.021000
38.566667	1	-0.020625
38.583333	1	-0.020500
38.600000	1	-0.020250
38.616667	1	-0.020375
38.633333	1	-0.020500
38.650000	1	-0.020250
38.666667	1	-0.019375
38.683333	1	-0.019000
38.700000	1	-0.018375
38.716667	1	-0.017875
38.733333	1	-0.017875
38.750000	1	-0.017500
38.766667	1	-0.016875
38.783333	1	-0.015875
38.800000	1	-0.015250
38.816667	1	-0.015250
38.833333	1	-0.014750
38.850000	1	-0.014625
38.866667	1	-0.015000
38.883333	1	-0.014875
38.900000	1	-0.014125
38.916667	1	-0.013625
38.933333	1	-0.013250
38.950000	1	-0.012500
38.966667	1	-0.011375
38.983333	1	-0.010625
39.000000	1	-0.010750
39.016667	1	-0.010250
39.033333	1	-0.010250
39.050000	1	-0.009875
39.066667	1	-0.009125
39.083333	1	-0.009125
39.100000	1	-0.008375
39.116667	1	-0.008000
39.133333	1	-0.007500
39.150000	1	-0.007125
39.166667	1	-0.006750
39.183333	1	-0.006250
39.200000	1	-0.005875
39.216667	1	-0.005875
39.233333	1	-0.005250
39.250000	1	-0.004875
39.266667	1	-0.004250
39.283333	1	-0.004000
39.300000	1	-0.003125
39.316667	1	-0.002625
39.333333	1	-0.001875
39.350000	1	-0.002125
39.366667	1	-0.002000
39.383333	1	-0.001750
39.400000	1	-0.000625
39.416667	1	0.000500
39.433333	1	0.001375
39.450000	1	0.001500
39.466667	1	0.002625
39.483333	1	0.003125
39.500000	1	0.003500
39.516667	1	0.003875
39.533333	1	0.004250
39.550000	1	0.004250
39.566667	1	0.004500
39.583333	1	0.005000
39.600000	1	0.005250
39.616667	1	0.005375
39.633333	1	0.004875
39.650000	1	0.005375
39.666667	1	0.006250
39.683333	1	0.006750
39.700000	1	0.006375
39.716667	1	0.006625
39.733333	1	0.007000
39.750000	1	0.007000
39.766667	1	0.006625
39.783333	1	0.006375
39.800000	1	0.006625
39.816667	1	0.006250
39.833333	1	0.006375
39.850000	1	0.006750
39.866667	1	0.006625
39.883333	1	0.007125
39.900000	1	0.007000
39.916667	1	0.007250
39.933333	1	0.007250
39.950000	1	0.007750
39.966667	1	0.007625
39.983333	1	0.007375
40.000000	1	0.008125
