File Path	chrom://990-75db15j/XVault/Ultimate_3000/1256/20230531_CMO_stabTest _FP08_FP09.seq/552.smp/RI_1.channel/RI_1.chm
Channel	RI_1

Injection Information:
Data Vault	XVault
Injection	FP08_9_s3
Injection Number	50
Position	BB2
Comment	
Processing Method	
Instrument Method	run_25B_method
Type	Unknown
Status	Finished
Injection Date	02.06.2023
Injection Time	23:12:10
Injection Volume (µl)	20.000
Dilution Factor	1.0000
Weight	1.0000

Chromatogram Data Information:
Time Min. (min)	0.000000
Time Max. (min)	40.000000
Data Points	2401
Detector	RI
Generating Data System	Chromeleon 7.2.5.9507
Exporting Data System	Chromeleon 7.2.5.0
Operator	Instrument Controller
Signal Quantity	Refractive 
Signal Unit	µRIU
Signal Min.	-0.564250
Signal Max.	58.105875
Channel	RI_1
Driver Name	RID520Driver.dll
Channel Type	Evaluation
Min. Step (s)	1
Max. Step (s)	1
Average Step (s)	1

Signal Parameter Information:
Signal Info	

Chromatogram Data:
Time (min)	Step (s)	Value (µRIU)
0.000000	n.a.	-0.023000
0.016667	1	-0.022750
0.033333	1	-0.022875
0.050000	1	-0.022750
0.066667	1	-0.022375
0.083333	1	-0.021250
0.100000	1	-0.020875
0.116667	1	-0.020750
0.133333	1	-0.021125
0.150000	1	-0.021375
0.166667	1	-0.020625
0.183333	1	-0.021000
0.200000	1	-0.021000
0.216667	1	-0.021000
0.233333	1	-0.021125
0.250000	1	-0.020375
0.266667	1	-0.020625
0.283333	1	-0.022375
0.300000	1	-0.024875
0.316667	1	-0.028750
0.333333	1	-0.031500
0.350000	1	-0.032000
0.366667	1	-0.029000
0.383333	1	-0.025500
0.400000	1	-0.022250
0.416667	1	-0.018875
0.433333	1	-0.016500
0.450000	1	-0.015625
0.466667	1	-0.015000
0.483333	1	-0.016000
0.500000	1	-0.017625
0.516667	1	-0.020375
0.533333	1	-0.023000
0.550000	1	-0.025500
0.566667	1	-0.027375
0.583333	1	-0.029125
0.600000	1	-0.030875
0.616667	1	-0.032375
0.633333	1	-0.034000
0.650000	1	-0.035125
0.666667	1	-0.035375
0.683333	1	-0.036000
0.700000	1	-0.036750
0.716667	1	-0.037000
0.733333	1	-0.037625
0.750000	1	-0.038000
0.766667	1	-0.037625
0.783333	1	-0.037500
0.800000	1	-0.038375
0.816667	1	-0.038500
0.833333	1	-0.038750
0.850000	1	-0.039000
0.866667	1	-0.038250
0.883333	1	-0.037875
0.900000	1	-0.038250
0.916667	1	-0.038500
0.933333	1	-0.038375
0.950000	1	-0.037875
0.966667	1	-0.038125
0.983333	1	-0.039375
1.000000	1	-0.039375
1.016667	1	-0.039625
1.033333	1	-0.040250
1.050000	1	-0.040875
1.066667	1	-0.041125
1.083333	1	-0.041375
1.100000	1	-0.041625
1.116667	1	-0.042625
1.133333	1	-0.043500
1.150000	1	-0.044375
1.166667	1	-0.045375
1.183333	1	-0.047000
1.200000	1	-0.048375
1.216667	1	-0.049125
1.233333	1	-0.050125
1.250000	1	-0.051000
1.266667	1	-0.051875
1.283333	1	-0.053250
1.300000	1	-0.054500
1.316667	1	-0.056250
1.333333	1	-0.057875
1.350000	1	-0.058750
1.366667	1	-0.060375
1.383333	1	-0.061625
1.400000	1	-0.063500
1.416667	1	-0.064875
1.433333	1	-0.066125
1.450000	1	-0.067375
1.466667	1	-0.068500
1.483333	1	-0.069125
1.500000	1	-0.070625
1.516667	1	-0.072000
1.533333	1	-0.073250
1.550000	1	-0.074000
1.566667	1	-0.074125
1.583333	1	-0.074500
1.600000	1	-0.075500
1.616667	1	-0.075750
1.633333	1	-0.076625
1.650000	1	-0.076500
1.666667	1	-0.076250
1.683333	1	-0.076125
1.700000	1	-0.076250
1.716667	1	-0.076500
1.733333	1	-0.076500
1.750000	1	-0.076250
1.766667	1	-0.076125
1.783333	1	-0.075875
1.800000	1	-0.075250
1.816667	1	-0.075000
1.833333	1	-0.074000
1.850000	1	-0.073500
1.866667	1	-0.072500
1.883333	1	-0.072500
1.900000	1	-0.072750
1.916667	1	-0.071500
1.933333	1	-0.070625
1.950000	1	-0.069375
1.966667	1	-0.069125
1.983333	1	-0.068375
2.000000	1	-0.067750
2.016667	1	-0.067000
2.033333	1	-0.066250
2.050000	1	-0.065250
2.066667	1	-0.065250
2.083333	1	-0.064750
2.100000	1	-0.063625
2.116667	1	-0.063500
2.133333	1	-0.062875
2.150000	1	-0.062000
2.166667	1	-0.060875
2.183333	1	-0.060250
2.200000	1	-0.059375
2.216667	1	-0.058375
2.233333	1	-0.057875
2.250000	1	-0.056750
2.266667	1	-0.056375
2.283333	1	-0.055250
2.300000	1	-0.054375
2.316667	1	-0.053750
2.333333	1	-0.052625
2.350000	1	-0.051875
2.366667	1	-0.050875
2.383333	1	-0.049750
2.400000	1	-0.048125
2.416667	1	-0.046875
2.433333	1	-0.045250
2.450000	1	-0.044375
2.466667	1	-0.043500
2.483333	1	-0.042250
2.500000	1	-0.041125
2.516667	1	-0.040125
2.533333	1	-0.038750
2.550000	1	-0.037875
2.566667	1	-0.036625
2.583333	1	-0.035000
2.600000	1	-0.033875
2.616667	1	-0.032375
2.633333	1	-0.030750
2.650000	1	-0.029875
2.666667	1	-0.028000
2.683333	1	-0.026875
2.700000	1	-0.025250
2.716667	1	-0.024125
2.733333	1	-0.023125
2.750000	1	-0.022250
2.766667	1	-0.021125
2.783333	1	-0.020000
2.800000	1	-0.018875
2.816667	1	-0.017625
2.833333	1	-0.015875
2.850000	1	-0.015000
2.866667	1	-0.014000
2.883333	1	-0.012500
2.900000	1	-0.011750
2.916667	1	-0.011125
2.933333	1	-0.010250
2.950000	1	-0.009250
2.966667	1	-0.008500
2.983333	1	-0.007375
3.000000	1	-0.006750
3.016667	1	-0.006375
3.033333	1	-0.005500
3.050000	1	-0.004750
3.066667	1	-0.004250
3.083333	1	-0.004625
3.100000	1	-0.004000
3.116667	1	-0.004000
3.133333	1	-0.004250
3.150000	1	-0.003375
3.166667	1	-0.002875
3.183333	1	-0.002125
3.200000	1	-0.002000
3.216667	1	-0.002000
3.233333	1	-0.002000
3.250000	1	-0.002500
3.266667	1	-0.002500
3.283333	1	-0.002250
3.300000	1	-0.002000
3.316667	1	-0.002000
3.333333	1	-0.001750
3.350000	1	-0.001625
3.366667	1	-0.000875
3.383333	1	-0.000750
3.400000	1	-0.001250
3.416667	1	-0.000500
3.433333	1	-0.001125
3.450000	1	-0.001625
3.466667	1	-0.002250
3.483333	1	-0.001875
3.500000	1	-0.001875
3.516667	1	-0.002125
3.533333	1	-0.002250
3.550000	1	-0.002375
3.566667	1	-0.003125
3.583333	1	-0.003500
3.600000	1	-0.003875
3.616667	1	-0.004250
3.633333	1	-0.004875
3.650000	1	-0.005375
3.666667	1	-0.006250
3.683333	1	-0.007375
3.700000	1	-0.007875
3.716667	1	-0.009125
3.733333	1	-0.010000
3.750000	1	-0.010875
3.766667	1	-0.011875
3.783333	1	-0.012375
3.800000	1	-0.013125
3.816667	1	-0.014250
3.833333	1	-0.015500
3.850000	1	-0.016875
3.866667	1	-0.018250
3.883333	1	-0.018625
3.900000	1	-0.019750
3.916667	1	-0.021375
3.933333	1	-0.023125
3.950000	1	-0.023875
3.966667	1	-0.024625
3.983333	1	-0.025875
4.000000	1	-0.027375
4.016667	1	-0.028125
4.033333	1	-0.028875
4.050000	1	-0.029875
4.066667	1	-0.031000
4.083333	1	-0.031875
4.100000	1	-0.033375
4.116667	1	-0.034500
4.133333	1	-0.035875
4.150000	1	-0.036875
4.166667	1	-0.037625
4.183333	1	-0.038500
4.200000	1	-0.039375
4.216667	1	-0.040125
4.233333	1	-0.040750
4.250000	1	-0.041625
4.266667	1	-0.042250
4.283333	1	-0.043375
4.300000	1	-0.043875
4.316667	1	-0.044750
4.333333	1	-0.045625
4.350000	1	-0.047000
4.366667	1	-0.047875
4.383333	1	-0.049125
4.400000	1	-0.049375
4.416667	1	-0.050000
4.433333	1	-0.051125
4.450000	1	-0.052000
4.466667	1	-0.052500
4.483333	1	-0.053500
4.500000	1	-0.053875
4.516667	1	-0.054875
4.533333	1	-0.055125
4.550000	1	-0.055875
4.566667	1	-0.056500
4.583333	1	-0.056875
4.600000	1	-0.056875
4.616667	1	-0.056750
4.633333	1	-0.057625
4.650000	1	-0.057875
4.666667	1	-0.058250
4.683333	1	-0.057625
4.700000	1	-0.057125
4.716667	1	-0.056125
4.733333	1	-0.055625
4.750000	1	-0.054750
4.766667	1	-0.053750
4.783333	1	-0.051875
4.800000	1	-0.050000
4.816667	1	-0.048375
4.833333	1	-0.046500
4.850000	1	-0.045000
4.866667	1	-0.043250
4.883333	1	-0.041250
4.900000	1	-0.039375
4.916667	1	-0.037375
4.933333	1	-0.035500
4.950000	1	-0.032875
4.966667	1	-0.030000
4.983333	1	-0.027250
5.000000	1	-0.024000
5.016667	1	-0.021125
5.033333	1	-0.018875
5.050000	1	-0.015625
5.066667	1	-0.012750
5.083333	1	-0.009875
5.100000	1	-0.006750
5.116667	1	-0.003875
5.133333	1	-0.000750
5.150000	1	0.002125
5.166667	1	0.005000
5.183333	1	0.007875
5.200000	1	0.011375
5.216667	1	0.013625
5.233333	1	0.016250
5.250000	1	0.018875
5.266667	1	0.021250
5.283333	1	0.023250
5.300000	1	0.025750
5.316667	1	0.027750
5.333333	1	0.029500
5.350000	1	0.031750
5.366667	1	0.033875
5.383333	1	0.036000
5.400000	1	0.038000
5.416667	1	0.039375
5.433333	1	0.041250
5.450000	1	0.042625
5.466667	1	0.044375
5.483333	1	0.045000
5.500000	1	0.045125
5.516667	1	0.046625
5.533333	1	0.048125
5.550000	1	0.049250
5.566667	1	0.050250
5.583333	1	0.051000
5.600000	1	0.051875
5.616667	1	0.052750
5.633333	1	0.052875
5.650000	1	0.053000
5.666667	1	0.053250
5.683333	1	0.054000
5.700000	1	0.054625
5.716667	1	0.054375
5.733333	1	0.054750
5.750000	1	0.055125
5.766667	1	0.055750
5.783333	1	0.055875
5.800000	1	0.055875
5.816667	1	0.055750
5.833333	1	0.055750
5.850000	1	0.055125
5.866667	1	0.055500
5.883333	1	0.055000
5.900000	1	0.054625
5.916667	1	0.053875
5.933333	1	0.053875
5.950000	1	0.053125
5.966667	1	0.052625
5.983333	1	0.052375
6.000000	1	0.052125
6.016667	1	0.051500
6.033333	1	0.051000
6.050000	1	0.050625
6.066667	1	0.050500
6.083333	1	0.049875
6.100000	1	0.049750
6.116667	1	0.049500
6.133333	1	0.048875
6.150000	1	0.048750
6.166667	1	0.048875
6.183333	1	0.048625
6.200000	1	0.049125
6.216667	1	0.049125
6.233333	1	0.048750
6.250000	1	0.048375
6.266667	1	0.048625
6.283333	1	0.049500
6.300000	1	0.049875
6.316667	1	0.049250
6.333333	1	0.049250
6.350000	1	0.049125
6.366667	1	0.049875
6.383333	1	0.049875
6.400000	1	0.049375
6.416667	1	0.049500
6.433333	1	0.049625
6.450000	1	0.049625
6.466667	1	0.050125
6.483333	1	0.050250
6.500000	1	0.050625
6.516667	1	0.051375
6.533333	1	0.051125
6.550000	1	0.051750
6.566667	1	0.052625
6.583333	1	0.052875
6.600000	1	0.052250
6.616667	1	0.051750
6.633333	1	0.051625
6.650000	1	0.051250
6.666667	1	0.050625
6.683333	1	0.049750
6.700000	1	0.049875
6.716667	1	0.049000
6.733333	1	0.048250
6.750000	1	0.047500
6.766667	1	0.046125
6.783333	1	0.045500
6.800000	1	0.043875
6.816667	1	0.042500
6.833333	1	0.040875
6.850000	1	0.038625
6.866667	1	0.036500
6.883333	1	0.034250
6.900000	1	0.032625
6.916667	1	0.030750
6.933333	1	0.027625
6.950000	1	0.026000
6.966667	1	0.023500
6.983333	1	0.021250
7.000000	1	0.018750
7.016667	1	0.016500
7.033333	1	0.014375
7.050000	1	0.012500
7.066667	1	0.009625
7.083333	1	0.007625
7.100000	1	0.005375
7.116667	1	0.003000
7.133333	1	0.001500
7.150000	1	0.000000
7.166667	1	-0.002125
7.183333	1	-0.004500
7.200000	1	-0.005500
7.216667	1	-0.007125
7.233333	1	-0.009125
7.250000	1	-0.010750
7.266667	1	-0.012125
7.283333	1	-0.013375
7.300000	1	-0.014875
7.316667	1	-0.016500
7.333333	1	-0.017375
7.350000	1	-0.018125
7.366667	1	-0.018875
7.383333	1	-0.020375
7.400000	1	-0.021375
7.416667	1	-0.022125
7.433333	1	-0.022750
7.450000	1	-0.023250
7.466667	1	-0.023500
7.483333	1	-0.024500
7.500000	1	-0.025500
7.516667	1	-0.026000
7.533333	1	-0.027250
7.550000	1	-0.027375
7.566667	1	-0.027500
7.583333	1	-0.027875
7.600000	1	-0.027750
7.616667	1	-0.027625
7.633333	1	-0.028125
7.650000	1	-0.029125
7.666667	1	-0.029500
7.683333	1	-0.029750
7.700000	1	-0.029750
7.716667	1	-0.029500
7.733333	1	-0.030125
7.750000	1	-0.030250
7.766667	1	-0.029875
7.783333	1	-0.029125
7.800000	1	-0.028875
7.816667	1	-0.029000
7.833333	1	-0.028875
7.850000	1	-0.028375
7.866667	1	-0.028250
7.883333	1	-0.029000
7.900000	1	-0.029000
7.916667	1	-0.029250
7.933333	1	-0.028625
7.950000	1	-0.028125
7.966667	1	-0.027875
7.983333	1	-0.027000
8.000000	1	-0.026500
8.016667	1	-0.026625
8.033333	1	-0.025500
8.050000	1	-0.025500
8.066667	1	-0.025375
8.083333	1	-0.025000
8.100000	1	-0.025000
8.116667	1	-0.024625
8.133333	1	-0.024500
8.150000	1	-0.023750
8.166667	1	-0.022750
8.183333	1	-0.022500
8.200000	1	-0.022625
8.216667	1	-0.022000
8.233333	1	-0.021875
8.250000	1	-0.021625
8.266667	1	-0.021000
8.283333	1	-0.019875
8.300000	1	-0.019625
8.316667	1	-0.018500
8.333333	1	-0.017375
8.350000	1	-0.016750
8.366667	1	-0.016250
8.383333	1	-0.015000
8.400000	1	-0.014375
8.416667	1	-0.013250
8.433333	1	-0.011750
8.450000	1	-0.010500
8.466667	1	-0.009375
8.483333	1	-0.008000
8.500000	1	-0.006625
8.516667	1	-0.005125
8.533333	1	-0.003250
8.550000	1	-0.001375
8.566667	1	0.000375
8.583333	1	0.002625
8.600000	1	0.003875
8.616667	1	0.005875
8.633333	1	0.007250
8.650000	1	0.009000
8.666667	1	0.011250
8.683333	1	0.013250
8.700000	1	0.014875
8.716667	1	0.016125
8.733333	1	0.017875
8.750000	1	0.020000
8.766667	1	0.022250
8.783333	1	0.023875
8.800000	1	0.025125
8.816667	1	0.026875
8.833333	1	0.028250
8.850000	1	0.029750
8.866667	1	0.031125
8.883333	1	0.033000
8.900000	1	0.034875
8.916667	1	0.036250
8.933333	1	0.038375
8.950000	1	0.039875
8.966667	1	0.041125
8.983333	1	0.042125
9.000000	1	0.043250
9.016667	1	0.044625
9.033333	1	0.045375
9.050000	1	0.046125
9.066667	1	0.047625
9.083333	1	0.048375
9.100000	1	0.048875
9.116667	1	0.050000
9.133333	1	0.050875
9.150000	1	0.051500
9.166667	1	0.052625
9.183333	1	0.053375
9.200000	1	0.054000
9.216667	1	0.054750
9.233333	1	0.055875
9.250000	1	0.056500
9.266667	1	0.056375
9.283333	1	0.056750
9.300000	1	0.057875
9.316667	1	0.058750
9.333333	1	0.059125
9.350000	1	0.059375
9.366667	1	0.059875
9.383333	1	0.060625
9.400000	1	0.061750
9.416667	1	0.063000
9.433333	1	0.064250
9.450000	1	0.066500
9.466667	1	0.068500
9.483333	1	0.070375
9.500000	1	0.074125
9.516667	1	0.077625
9.533333	1	0.081500
9.550000	1	0.086500
9.566667	1	0.092125
9.583333	1	0.097750
9.600000	1	0.105250
9.616667	1	0.114375
9.633333	1	0.125125
9.650000	1	0.137000
9.666667	1	0.150625
9.683333	1	0.166125
9.700000	1	0.183250
9.716667	1	0.201500
9.733333	1	0.219625
9.750000	1	0.237500
9.766667	1	0.253000
9.783333	1	0.265750
9.800000	1	0.272750
9.816667	1	0.274875
9.833333	1	0.268500
9.850000	1	0.254250
9.866667	1	0.229250
9.883333	1	0.192375
9.900000	1	0.145500
9.916667	1	0.097375
9.933333	1	0.071625
9.950000	1	0.108875
9.966667	1	0.262750
9.983333	1	0.596000
10.000000	1	1.172125
10.016667	1	2.047875
10.033333	1	3.268250
10.050000	1	4.865500
10.066667	1	6.855500
10.083333	1	9.242625
10.100000	1	12.017875
10.116667	1	15.156625
10.133333	1	18.617000
10.150000	1	22.337375
10.166667	1	26.232875
10.183333	1	30.189250
10.200000	1	34.063250
10.216667	1	37.676625
10.233333	1	40.829000
10.250000	1	43.307875
10.266667	1	44.925000
10.283333	1	45.547000
10.300000	1	45.124375
10.316667	1	43.709625
10.333333	1	41.447750
10.350000	1	38.550500
10.366667	1	35.259500
10.383333	1	31.807500
10.400000	1	28.389125
10.416667	1	25.147250
10.433333	1	22.172000
10.450000	1	19.508500
10.466667	1	17.163125
10.483333	1	15.121250
10.500000	1	13.354000
10.516667	1	11.828000
10.533333	1	10.510250
10.550000	1	9.367875
10.566667	1	8.376250
10.583333	1	7.511000
10.600000	1	6.755000
10.616667	1	6.093625
10.633333	1	5.515875
10.650000	1	5.011375
10.666667	1	4.572375
10.683333	1	4.190125
10.700000	1	3.857750
10.716667	1	3.568000
10.733333	1	3.314625
10.750000	1	3.091500
10.766667	1	2.894125
10.783333	1	2.717875
10.800000	1	2.560500
10.816667	1	2.417500
10.833333	1	2.287625
10.850000	1	2.169875
10.866667	1	2.062500
10.883333	1	1.964375
10.900000	1	1.874875
10.916667	1	1.793000
10.933333	1	1.718625
10.950000	1	1.650375
10.966667	1	1.587875
10.983333	1	1.529375
11.000000	1	1.475625
11.016667	1	1.426000
11.033333	1	1.380250
11.050000	1	1.338000
11.066667	1	1.299000
11.083333	1	1.262625
11.100000	1	1.229500
11.116667	1	1.198125
11.133333	1	1.168875
11.150000	1	1.141625
11.166667	1	1.116500
11.183333	1	1.093500
11.200000	1	1.072250
11.216667	1	1.052500
11.233333	1	1.034750
11.250000	1	1.016875
11.266667	1	1.000375
11.283333	1	0.984750
11.300000	1	0.969375
11.316667	1	0.954750
11.333333	1	0.940500
11.350000	1	0.926750
11.366667	1	0.914250
11.383333	1	0.901875
11.400000	1	0.890875
11.416667	1	0.879875
11.433333	1	0.870250
11.450000	1	0.861750
11.466667	1	0.854250
11.483333	1	0.847625
11.500000	1	0.842125
11.516667	1	0.836750
11.533333	1	0.832125
11.550000	1	0.829000
11.566667	1	0.826250
11.583333	1	0.823875
11.600000	1	0.822375
11.616667	1	0.821750
11.633333	1	0.821625
11.650000	1	0.821625
11.666667	1	0.821500
11.683333	1	0.821750
11.700000	1	0.823000
11.716667	1	0.822875
11.733333	1	0.823250
11.750000	1	0.823125
11.766667	1	0.823125
11.783333	1	0.823500
11.800000	1	0.823375
11.816667	1	0.825375
11.833333	1	0.827625
11.850000	1	0.830500
11.866667	1	0.835250
11.883333	1	0.840875
11.900000	1	0.849125
11.916667	1	0.859000
11.933333	1	0.871125
11.950000	1	0.886250
11.966667	1	0.903875
11.983333	1	0.923625
12.000000	1	0.946875
12.016667	1	0.972625
12.033333	1	1.001125
12.050000	1	1.033625
12.066667	1	1.071000
12.083333	1	1.113625
12.100000	1	1.162625
12.116667	1	1.220750
12.133333	1	1.289500
12.150000	1	1.371375
12.166667	1	1.467875
12.183333	1	1.583000
12.200000	1	1.718875
12.216667	1	1.877375
12.233333	1	2.059000
12.250000	1	2.266000
12.266667	1	2.500000
12.283333	1	2.762125
12.300000	1	3.054000
12.316667	1	3.377125
12.333333	1	3.734875
12.350000	1	4.129125
12.366667	1	4.562625
12.383333	1	5.038125
12.400000	1	5.557750
12.416667	1	6.119375
12.433333	1	6.719375
12.450000	1	7.351750
12.466667	1	8.005625
12.483333	1	8.666125
12.500000	1	9.315250
12.516667	1	9.930375
12.533333	1	10.487500
12.550000	1	10.963500
12.566667	1	11.340750
12.583333	1	11.610125
12.600000	1	11.771125
12.616667	1	11.831375
12.633333	1	11.803875
12.650000	1	11.703250
12.666667	1	11.543625
12.683333	1	11.338375
12.700000	1	11.099000
12.716667	1	10.835750
12.733333	1	10.557375
12.750000	1	10.270375
12.766667	1	9.979500
12.783333	1	9.687500
12.800000	1	9.399625
12.816667	1	9.117375
12.833333	1	8.842125
12.850000	1	8.575750
12.866667	1	8.317750
12.883333	1	8.066125
12.900000	1	7.821375
12.916667	1	7.583125
12.933333	1	7.348625
12.950000	1	7.116250
12.966667	1	6.885625
12.983333	1	6.654125
13.000000	1	6.420250
13.016667	1	6.181625
13.033333	1	5.936750
13.050000	1	5.683250
13.066667	1	5.417000
13.083333	1	5.135875
13.100000	1	4.837250
13.116667	1	4.517875
13.133333	1	4.176125
13.150000	1	3.812250
13.166667	1	3.432125
13.183333	1	3.046875
13.200000	1	2.676125
13.216667	1	2.340750
13.233333	1	2.053375
13.250000	1	1.818625
13.266667	1	1.631000
13.283333	1	1.482500
13.300000	1	1.363625
13.316667	1	1.267750
13.333333	1	1.187500
13.350000	1	1.121375
13.366667	1	1.065250
13.383333	1	1.016375
13.400000	1	0.974625
13.416667	1	0.938625
13.433333	1	0.906500
13.450000	1	0.877875
13.466667	1	0.852875
13.483333	1	0.830750
13.500000	1	0.811625
13.516667	1	0.794500
13.533333	1	0.780500
13.550000	1	0.769500
13.566667	1	0.760750
13.583333	1	0.753500
13.600000	1	0.748750
13.616667	1	0.745500
13.633333	1	0.744375
13.650000	1	0.743875
13.666667	1	0.743500
13.683333	1	0.743250
13.700000	1	0.742000
13.716667	1	0.739875
13.733333	1	0.736250
13.750000	1	0.731625
13.766667	1	0.725750
13.783333	1	0.718875
13.800000	1	0.710000
13.816667	1	0.699625
13.833333	1	0.688750
13.850000	1	0.677250
13.866667	1	0.664875
13.883333	1	0.652375
13.900000	1	0.639875
13.916667	1	0.627250
13.933333	1	0.614000
13.950000	1	0.602250
13.966667	1	0.590250
13.983333	1	0.579125
14.000000	1	0.569125
14.016667	1	0.560250
14.033333	1	0.551875
14.050000	1	0.544375
14.066667	1	0.537125
14.083333	1	0.532250
14.100000	1	0.528250
14.116667	1	0.525000
14.133333	1	0.524125
14.150000	1	0.524375
14.166667	1	0.525750
14.183333	1	0.529875
14.200000	1	0.536000
14.216667	1	0.545000
14.233333	1	0.557250
14.250000	1	0.572625
14.266667	1	0.593125
14.283333	1	0.618375
14.300000	1	0.649500
14.316667	1	0.687875
14.333333	1	0.734375
14.350000	1	0.791375
14.366667	1	0.858750
14.383333	1	0.938875
14.400000	1	1.032250
14.416667	1	1.141750
14.433333	1	1.269000
14.450000	1	1.415750
14.466667	1	1.584875
14.483333	1	1.778250
14.500000	1	1.999500
14.516667	1	2.251500
14.533333	1	2.540125
14.550000	1	2.870125
14.566667	1	3.249375
14.583333	1	3.686250
14.600000	1	4.195500
14.616667	1	4.793375
14.633333	1	5.502500
14.650000	1	6.350875
14.666667	1	7.370500
14.683333	1	8.599500
14.700000	1	10.079750
14.716667	1	11.850250
14.733333	1	13.947125
14.750000	1	16.397000
14.766667	1	19.212750
14.783333	1	22.384500
14.800000	1	25.884375
14.816667	1	29.657875
14.833333	1	33.627250
14.850000	1	37.685500
14.866667	1	41.705625
14.883333	1	45.548625
14.900000	1	49.075000
14.916667	1	52.152125
14.933333	1	54.664875
14.950000	1	56.525500
14.966667	1	57.679000
14.983333	1	58.105875
15.000000	1	57.820125
15.016667	1	56.864625
15.033333	1	55.304875
15.050000	1	53.224375
15.066667	1	50.719500
15.083333	1	47.892250
15.100000	1	44.842375
15.116667	1	41.665000
15.133333	1	38.442500
15.150000	1	35.248250
15.166667	1	32.140125
15.183333	1	29.163625
15.200000	1	26.349500
15.216667	1	23.717250
15.233333	1	21.277375
15.250000	1	19.033625
15.266667	1	16.984875
15.283333	1	15.127375
15.300000	1	13.453500
15.316667	1	11.953750
15.333333	1	10.616625
15.350000	1	9.428875
15.366667	1	8.379750
15.383333	1	7.456875
15.400000	1	6.647000
15.416667	1	5.938000
15.433333	1	5.320625
15.450000	1	4.783750
15.466667	1	4.319125
15.483333	1	3.918750
15.500000	1	3.574625
15.516667	1	3.281000
15.533333	1	3.031875
15.550000	1	2.820000
15.566667	1	2.641000
15.583333	1	2.490125
15.600000	1	2.362000
15.616667	1	2.253500
15.633333	1	2.160250
15.650000	1	2.077875
15.666667	1	2.004750
15.683333	1	1.938625
15.700000	1	1.877375
15.716667	1	1.820375
15.733333	1	1.765375
15.750000	1	1.713500
15.766667	1	1.662625
15.783333	1	1.614125
15.800000	1	1.568500
15.816667	1	1.524750
15.833333	1	1.482250
15.850000	1	1.441750
15.866667	1	1.403125
15.883333	1	1.365750
15.900000	1	1.329625
15.916667	1	1.294875
15.933333	1	1.261750
15.950000	1	1.230500
15.966667	1	1.200375
15.983333	1	1.172250
16.000000	1	1.146500
16.016667	1	1.122625
16.033333	1	1.100875
16.050000	1	1.081625
16.066667	1	1.064750
16.083333	1	1.050875
16.100000	1	1.039750
16.116667	1	1.031875
16.133333	1	1.026500
16.150000	1	1.022625
16.166667	1	1.021625
16.183333	1	1.020375
16.200000	1	1.020250
16.216667	1	1.019875
16.233333	1	1.019125
16.250000	1	1.016750
16.266667	1	1.013250
16.283333	1	1.007375
16.300000	1	0.999750
16.316667	1	0.991625
16.333333	1	0.981750
16.350000	1	0.969875
16.366667	1	0.957750
16.383333	1	0.944750
16.400000	1	0.931750
16.416667	1	0.918000
16.433333	1	0.904375
16.450000	1	0.891500
16.466667	1	0.879625
16.483333	1	0.869500
16.500000	1	0.859625
16.516667	1	0.851750
16.533333	1	0.844625
16.550000	1	0.838500
16.566667	1	0.833375
16.583333	1	0.830000
16.600000	1	0.827500
16.616667	1	0.826250
16.633333	1	0.826375
16.650000	1	0.826750
16.666667	1	0.827750
16.683333	1	0.829125
16.700000	1	0.831500
16.716667	1	0.834625
16.733333	1	0.837750
16.750000	1	0.841375
16.766667	1	0.845000
16.783333	1	0.848500
16.800000	1	0.851625
16.816667	1	0.853750
16.833333	1	0.855375
16.850000	1	0.855875
16.866667	1	0.855625
16.883333	1	0.855000
16.900000	1	0.854250
16.916667	1	0.853000
16.933333	1	0.852000
16.950000	1	0.850500
16.966667	1	0.849625
16.983333	1	0.849250
17.000000	1	0.850125
17.016667	1	0.851500
17.033333	1	0.853125
17.050000	1	0.855750
17.066667	1	0.857875
17.083333	1	0.859625
17.100000	1	0.861875
17.116667	1	0.863750
17.133333	1	0.864875
17.150000	1	0.865250
17.166667	1	0.864250
17.183333	1	0.862875
17.200000	1	0.860625
17.216667	1	0.856875
17.233333	1	0.852750
17.250000	1	0.847375
17.266667	1	0.840500
17.283333	1	0.834125
17.300000	1	0.826500
17.316667	1	0.819250
17.333333	1	0.811625
17.350000	1	0.804750
17.366667	1	0.798375
17.383333	1	0.792000
17.400000	1	0.786375
17.416667	1	0.780875
17.433333	1	0.776375
17.450000	1	0.772250
17.466667	1	0.770000
17.483333	1	0.768250
17.500000	1	0.768000
17.516667	1	0.769125
17.533333	1	0.771625
17.550000	1	0.775625
17.566667	1	0.780875
17.583333	1	0.787750
17.600000	1	0.796500
17.616667	1	0.805125
17.633333	1	0.816250
17.650000	1	0.828000
17.666667	1	0.840750
17.683333	1	0.854750
17.700000	1	0.870000
17.716667	1	0.885125
17.733333	1	0.900875
17.750000	1	0.916750
17.766667	1	0.932625
17.783333	1	0.948000
17.800000	1	0.963000
17.816667	1	0.976375
17.833333	1	0.988125
17.850000	1	0.999250
17.866667	1	1.008000
17.883333	1	1.015125
17.900000	1	1.020125
17.916667	1	1.022625
17.933333	1	1.023500
17.950000	1	1.021375
17.966667	1	1.017375
17.983333	1	1.011750
18.000000	1	1.004875
18.016667	1	0.996000
18.033333	1	0.984375
18.050000	1	0.971625
18.066667	1	0.957875
18.083333	1	0.944375
18.100000	1	0.928875
18.116667	1	0.913625
18.133333	1	0.898125
18.150000	1	0.883375
18.166667	1	0.868125
18.183333	1	0.853625
18.200000	1	0.839875
18.216667	1	0.826000
18.233333	1	0.813625
18.250000	1	0.801750
18.266667	1	0.790000
18.283333	1	0.779500
18.300000	1	0.771250
18.316667	1	0.762875
18.333333	1	0.756125
18.350000	1	0.750500
18.366667	1	0.745750
18.383333	1	0.742000
18.400000	1	0.739000
18.416667	1	0.736875
18.433333	1	0.735875
18.450000	1	0.734750
18.466667	1	0.734000
18.483333	1	0.734500
18.500000	1	0.734375
18.516667	1	0.734125
18.533333	1	0.734750
18.550000	1	0.735625
18.566667	1	0.736750
18.583333	1	0.738125
18.600000	1	0.738875
18.616667	1	0.740750
18.633333	1	0.742250
18.650000	1	0.743500
18.666667	1	0.746125
18.683333	1	0.749250
18.700000	1	0.751750
18.716667	1	0.755375
18.733333	1	0.759750
18.750000	1	0.764000
18.766667	1	0.769250
18.783333	1	0.774625
18.800000	1	0.780875
18.816667	1	0.787500
18.833333	1	0.794500
18.850000	1	0.802000
18.866667	1	0.810750
18.883333	1	0.820375
18.900000	1	0.831375
18.916667	1	0.843625
18.933333	1	0.858000
18.950000	1	0.874500
18.966667	1	0.893000
18.983333	1	0.914250
19.000000	1	0.937875
19.016667	1	0.964250
19.033333	1	0.993625
19.050000	1	1.024750
19.066667	1	1.059250
19.083333	1	1.095625
19.100000	1	1.134250
19.116667	1	1.173875
19.133333	1	1.213875
19.150000	1	1.252625
19.166667	1	1.290625
19.183333	1	1.327125
19.200000	1	1.360500
19.216667	1	1.390875
19.233333	1	1.417000
19.250000	1	1.437500
19.266667	1	1.452000
19.283333	1	1.461000
19.300000	1	1.464125
19.316667	1	1.461875
19.333333	1	1.453500
19.350000	1	1.440125
19.366667	1	1.420625
19.383333	1	1.397625
19.400000	1	1.370125
19.416667	1	1.339000
19.433333	1	1.305500
19.450000	1	1.270250
19.466667	1	1.234375
19.483333	1	1.197500
19.500000	1	1.160500
19.516667	1	1.124750
19.533333	1	1.091125
19.550000	1	1.059750
19.566667	1	1.031000
19.583333	1	1.005625
19.600000	1	0.984375
19.616667	1	0.967000
19.633333	1	0.955000
19.650000	1	0.948500
19.666667	1	0.948500
19.683333	1	0.954500
19.700000	1	0.968625
19.716667	1	0.989875
19.733333	1	1.020125
19.750000	1	1.058250
19.766667	1	1.105750
19.783333	1	1.161875
19.800000	1	1.225375
19.816667	1	1.296125
19.833333	1	1.373000
19.850000	1	1.454375
19.866667	1	1.538750
19.883333	1	1.624750
19.900000	1	1.709750
19.916667	1	1.791125
19.933333	1	1.866625
19.950000	1	1.934750
19.966667	1	1.993750
19.983333	1	2.042375
20.000000	1	2.078875
20.016667	1	2.103250
20.033333	1	2.114375
20.050000	1	2.114125
20.066667	1	2.101500
20.083333	1	2.077250
20.100000	1	2.044000
20.116667	1	2.002000
20.133333	1	1.953875
20.150000	1	1.900375
20.166667	1	1.844000
20.183333	1	1.785875
20.200000	1	1.727250
20.216667	1	1.669500
20.233333	1	1.613625
20.250000	1	1.560750
20.266667	1	1.511750
20.283333	1	1.466875
20.300000	1	1.427625
20.316667	1	1.393375
20.333333	1	1.363875
20.350000	1	1.340125
20.366667	1	1.320375
20.383333	1	1.304250
20.400000	1	1.291750
20.416667	1	1.281500
20.433333	1	1.273625
20.450000	1	1.267125
20.466667	1	1.261375
20.483333	1	1.255500
20.500000	1	1.249875
20.516667	1	1.243000
20.533333	1	1.235375
20.550000	1	1.226125
20.566667	1	1.216125
20.583333	1	1.204750
20.600000	1	1.192750
20.616667	1	1.181250
20.633333	1	1.169875
20.650000	1	1.159250
20.666667	1	1.150250
20.683333	1	1.143875
20.700000	1	1.141250
20.716667	1	1.141625
20.733333	1	1.146000
20.750000	1	1.156125
20.766667	1	1.171250
20.783333	1	1.190375
20.800000	1	1.214125
20.816667	1	1.240625
20.833333	1	1.271500
20.850000	1	1.303625
20.866667	1	1.336875
20.883333	1	1.370375
20.900000	1	1.401125
20.916667	1	1.428750
20.933333	1	1.451750
20.950000	1	1.469500
20.966667	1	1.480625
20.983333	1	1.484000
21.000000	1	1.479625
21.016667	1	1.468000
21.033333	1	1.448625
21.050000	1	1.422125
21.066667	1	1.389500
21.083333	1	1.350750
21.100000	1	1.307375
21.116667	1	1.260875
21.133333	1	1.211500
21.150000	1	1.160000
21.166667	1	1.108250
21.183333	1	1.056250
21.200000	1	1.005000
21.216667	1	0.955500
21.233333	1	0.907000
21.250000	1	0.861125
21.266667	1	0.817875
21.283333	1	0.778000
21.300000	1	0.740250
21.316667	1	0.706375
21.333333	1	0.675000
21.350000	1	0.646375
21.366667	1	0.620875
21.383333	1	0.597750
21.400000	1	0.576750
21.416667	1	0.557500
21.433333	1	0.541125
21.450000	1	0.526125
21.466667	1	0.513875
21.483333	1	0.502750
21.500000	1	0.492875
21.516667	1	0.484875
21.533333	1	0.478000
21.550000	1	0.472625
21.566667	1	0.467750
21.583333	1	0.463750
21.600000	1	0.460375
21.616667	1	0.458125
21.633333	1	0.455875
21.650000	1	0.454625
21.666667	1	0.454375
21.683333	1	0.454625
21.700000	1	0.456125
21.716667	1	0.458250
21.733333	1	0.461375
21.750000	1	0.465875
21.766667	1	0.471000
21.783333	1	0.477000
21.800000	1	0.484000
21.816667	1	0.492375
21.833333	1	0.501500
21.850000	1	0.511625
21.866667	1	0.523375
21.883333	1	0.535750
21.900000	1	0.548250
21.916667	1	0.561375
21.933333	1	0.574375
21.950000	1	0.587000
21.966667	1	0.599625
21.983333	1	0.611125
22.000000	1	0.620875
22.016667	1	0.629500
22.033333	1	0.637125
22.050000	1	0.643000
22.066667	1	0.647125
22.083333	1	0.649500
22.100000	1	0.649250
22.116667	1	0.648125
22.133333	1	0.644625
22.150000	1	0.639375
22.166667	1	0.632750
22.183333	1	0.625125
22.200000	1	0.616250
22.216667	1	0.606750
22.233333	1	0.596500
22.250000	1	0.586875
22.266667	1	0.577375
22.283333	1	0.568125
22.300000	1	0.559250
22.316667	1	0.550750
22.333333	1	0.543125
22.350000	1	0.536625
22.366667	1	0.531250
22.383333	1	0.525750
22.400000	1	0.522250
22.416667	1	0.518875
22.433333	1	0.517000
22.450000	1	0.515750
22.466667	1	0.515250
22.483333	1	0.514875
22.500000	1	0.515875
22.516667	1	0.517125
22.533333	1	0.518625
22.550000	1	0.521125
22.566667	1	0.523125
22.583333	1	0.524875
22.600000	1	0.527000
22.616667	1	0.529125
22.633333	1	0.531375
22.650000	1	0.533500
22.666667	1	0.535625
22.683333	1	0.537375
22.700000	1	0.538375
22.716667	1	0.539375
22.733333	1	0.538875
22.750000	1	0.538250
22.766667	1	0.537625
22.783333	1	0.535625
22.800000	1	0.533125
22.816667	1	0.530125
22.833333	1	0.526250
22.850000	1	0.522125
22.866667	1	0.518000
22.883333	1	0.513375
22.900000	1	0.508125
22.916667	1	0.502375
22.933333	1	0.497250
22.950000	1	0.491125
22.966667	1	0.484375
22.983333	1	0.478250
23.000000	1	0.472375
23.016667	1	0.467375
23.033333	1	0.463500
23.050000	1	0.459125
23.066667	1	0.455875
23.083333	1	0.452875
23.100000	1	0.450750
23.116667	1	0.449625
23.133333	1	0.449875
23.150000	1	0.450375
23.166667	1	0.452875
23.183333	1	0.456000
23.200000	1	0.460750
23.216667	1	0.466500
23.233333	1	0.475000
23.250000	1	0.484500
23.266667	1	0.496125
23.283333	1	0.509500
23.300000	1	0.524750
23.316667	1	0.542375
23.333333	1	0.561750
23.350000	1	0.583500
23.366667	1	0.608250
23.383333	1	0.635500
23.400000	1	0.665750
23.416667	1	0.699500
23.433333	1	0.737875
23.450000	1	0.780500
23.466667	1	0.827875
23.483333	1	0.881125
23.500000	1	0.940375
23.516667	1	1.006750
23.533333	1	1.081125
23.550000	1	1.165000
23.566667	1	1.259375
23.583333	1	1.365000
23.600000	1	1.483625
23.616667	1	1.614625
23.633333	1	1.760500
23.650000	1	1.920875
23.666667	1	2.096625
23.683333	1	2.286250
23.700000	1	2.489625
23.716667	1	2.705500
23.733333	1	2.933250
23.750000	1	3.168750
23.766667	1	3.409750
23.783333	1	3.653125
23.800000	1	3.894875
23.816667	1	4.130125
23.833333	1	4.355125
23.850000	1	4.565000
23.866667	1	4.755875
23.883333	1	4.923125
23.900000	1	5.064375
23.916667	1	5.176250
23.933333	1	5.257250
23.950000	1	5.305125
23.966667	1	5.319750
23.983333	1	5.301250
24.000000	1	5.250000
24.016667	1	5.168875
24.033333	1	5.059625
24.050000	1	4.925500
24.066667	1	4.768750
24.083333	1	4.594250
24.100000	1	4.404000
24.116667	1	4.202875
24.133333	1	3.994125
24.150000	1	3.780250
24.166667	1	3.565000
24.183333	1	3.351500
24.200000	1	3.142000
24.216667	1	2.938375
24.233333	1	2.743625
24.250000	1	2.558250
24.266667	1	2.383000
24.283333	1	2.219500
24.300000	1	2.066750
24.316667	1	1.925000
24.333333	1	1.794625
24.350000	1	1.676250
24.366667	1	1.567500
24.383333	1	1.469125
24.400000	1	1.379875
24.416667	1	1.299250
24.433333	1	1.226625
24.450000	1	1.161875
24.466667	1	1.103625
24.483333	1	1.051000
24.500000	1	1.003875
24.516667	1	0.960750
24.533333	1	0.921250
24.550000	1	0.885000
24.566667	1	0.850500
24.583333	1	0.818500
24.600000	1	0.789125
24.616667	1	0.761125
24.633333	1	0.734125
24.650000	1	0.708125
24.666667	1	0.683625
24.683333	1	0.659750
24.700000	1	0.636375
24.716667	1	0.613375
24.733333	1	0.590875
24.750000	1	0.569125
24.766667	1	0.548000
24.783333	1	0.527375
24.800000	1	0.507375
24.816667	1	0.488000
24.833333	1	0.469000
24.850000	1	0.451250
24.866667	1	0.435375
24.883333	1	0.419250
24.900000	1	0.404875
24.916667	1	0.390750
24.933333	1	0.377875
24.950000	1	0.365000
24.966667	1	0.353625
24.983333	1	0.342750
25.000000	1	0.333750
25.016667	1	0.325875
25.033333	1	0.318250
25.050000	1	0.312000
25.066667	1	0.306750
25.083333	1	0.301875
25.100000	1	0.298250
25.116667	1	0.294875
25.133333	1	0.292625
25.150000	1	0.290250
25.166667	1	0.289875
25.183333	1	0.289625
25.200000	1	0.290250
25.216667	1	0.291000
25.233333	1	0.292750
25.250000	1	0.294875
25.266667	1	0.297500
25.283333	1	0.299875
25.300000	1	0.303250
25.316667	1	0.306750
25.333333	1	0.310375
25.350000	1	0.312875
25.366667	1	0.316125
25.383333	1	0.319250
25.400000	1	0.323000
25.416667	1	0.327125
25.433333	1	0.330875
25.450000	1	0.334375
25.466667	1	0.337000
25.483333	1	0.339250
25.500000	1	0.341625
25.516667	1	0.344125
25.533333	1	0.345750
25.550000	1	0.347000
25.566667	1	0.347875
25.583333	1	0.348750
25.600000	1	0.349250
25.616667	1	0.350000
25.633333	1	0.349875
25.650000	1	0.350125
25.666667	1	0.349500
25.683333	1	0.348750
25.700000	1	0.346500
25.716667	1	0.345250
25.733333	1	0.343375
25.750000	1	0.341750
25.766667	1	0.339625
25.783333	1	0.337250
25.800000	1	0.334250
25.816667	1	0.331250
25.833333	1	0.328125
25.850000	1	0.324500
25.866667	1	0.320875
25.883333	1	0.317125
25.900000	1	0.313375
25.916667	1	0.308875
25.933333	1	0.303500
25.950000	1	0.298375
25.966667	1	0.292875
25.983333	1	0.286750
26.000000	1	0.280875
26.016667	1	0.275000
26.033333	1	0.268875
26.050000	1	0.262625
26.066667	1	0.256375
26.083333	1	0.250250
26.100000	1	0.244500
26.116667	1	0.239125
26.133333	1	0.233000
26.150000	1	0.227125
26.166667	1	0.222250
26.183333	1	0.217125
26.200000	1	0.212750
26.216667	1	0.209625
26.233333	1	0.207375
26.250000	1	0.204750
26.266667	1	0.202750
26.283333	1	0.202000
26.300000	1	0.201000
26.316667	1	0.200625
26.333333	1	0.201000
26.350000	1	0.201375
26.366667	1	0.203250
26.383333	1	0.204875
26.400000	1	0.206375
26.416667	1	0.208750
26.433333	1	0.210625
26.450000	1	0.213125
26.466667	1	0.215250
26.483333	1	0.217625
26.500000	1	0.219125
26.516667	1	0.220125
26.533333	1	0.222125
26.550000	1	0.223250
26.566667	1	0.224500
26.583333	1	0.225250
26.600000	1	0.226000
26.616667	1	0.226875
26.633333	1	0.227375
26.650000	1	0.227375
26.666667	1	0.227500
26.683333	1	0.227625
26.700000	1	0.227750
26.716667	1	0.227750
26.733333	1	0.227375
26.750000	1	0.227000
26.766667	1	0.226500
26.783333	1	0.227000
26.800000	1	0.227250
26.816667	1	0.228125
26.833333	1	0.228500
26.850000	1	0.229375
26.866667	1	0.230625
26.883333	1	0.232125
26.900000	1	0.234125
26.916667	1	0.237125
26.933333	1	0.239625
26.950000	1	0.242750
26.966667	1	0.246000
26.983333	1	0.250000
27.000000	1	0.253625
27.016667	1	0.258125
27.033333	1	0.263250
27.050000	1	0.269250
27.066667	1	0.276000
27.083333	1	0.282500
27.100000	1	0.289750
27.116667	1	0.298000
27.133333	1	0.307250
27.150000	1	0.316000
27.166667	1	0.325500
27.183333	1	0.335500
27.200000	1	0.346125
27.216667	1	0.358125
27.233333	1	0.370750
27.250000	1	0.384375
27.266667	1	0.398750
27.283333	1	0.414000
27.300000	1	0.430750
27.316667	1	0.447875
27.333333	1	0.466250
27.350000	1	0.485750
27.366667	1	0.506875
27.383333	1	0.529125
27.400000	1	0.553000
27.416667	1	0.578750
27.433333	1	0.606750
27.450000	1	0.637375
27.466667	1	0.670500
27.483333	1	0.706375
27.500000	1	0.745875
27.516667	1	0.788250
27.533333	1	0.835750
27.550000	1	0.888000
27.566667	1	0.945375
27.583333	1	1.008625
27.600000	1	1.078000
27.616667	1	1.153625
27.633333	1	1.236000
27.650000	1	1.325750
27.666667	1	1.423125
27.683333	1	1.528125
27.700000	1	1.641500
27.716667	1	1.761750
27.733333	1	1.888250
27.750000	1	2.021625
27.766667	1	2.161375
27.783333	1	2.304875
27.800000	1	2.451500
27.816667	1	2.600125
27.833333	1	2.749250
27.850000	1	2.898250
27.866667	1	3.043375
27.883333	1	3.183375
27.900000	1	3.317000
27.916667	1	3.441000
27.933333	1	3.554625
27.950000	1	3.654750
27.966667	1	3.741250
27.983333	1	3.811250
28.000000	1	3.863750
28.016667	1	3.898250
28.033333	1	3.914500
28.050000	1	3.911000
28.066667	1	3.887750
28.083333	1	3.846000
28.100000	1	3.786250
28.116667	1	3.708375
28.133333	1	3.615125
28.150000	1	3.507000
28.166667	1	3.386375
28.183333	1	3.254500
28.200000	1	3.113625
28.216667	1	2.965375
28.233333	1	2.811750
28.250000	1	2.653875
28.266667	1	2.494875
28.283333	1	2.335375
28.300000	1	2.176750
28.316667	1	2.021125
28.333333	1	1.869250
28.350000	1	1.721875
28.366667	1	1.580875
28.383333	1	1.445500
28.400000	1	1.316375
28.416667	1	1.194000
28.433333	1	1.078250
28.450000	1	0.969750
28.466667	1	0.866625
28.483333	1	0.769875
28.500000	1	0.678375
28.516667	1	0.592000
28.533333	1	0.511000
28.550000	1	0.434625
28.566667	1	0.362375
28.583333	1	0.294250
28.600000	1	0.229125
28.616667	1	0.166875
28.633333	1	0.107375
28.650000	1	0.049875
28.666667	1	-0.004750
28.683333	1	-0.057625
28.700000	1	-0.108250
28.716667	1	-0.157000
28.733333	1	-0.203000
28.750000	1	-0.247750
28.766667	1	-0.289250
28.783333	1	-0.328375
28.800000	1	-0.364625
28.816667	1	-0.399000
28.833333	1	-0.430625
28.850000	1	-0.459125
28.866667	1	-0.484875
28.883333	1	-0.507000
28.900000	1	-0.525375
28.916667	1	-0.540500
28.933333	1	-0.551750
28.950000	1	-0.560000
28.966667	1	-0.564250
28.983333	1	-0.564250
29.000000	1	-0.560625
29.016667	1	-0.554125
29.033333	1	-0.543500
29.050000	1	-0.530125
29.066667	1	-0.513375
29.083333	1	-0.493375
29.100000	1	-0.471125
29.116667	1	-0.445875
29.133333	1	-0.417750
29.150000	1	-0.387625
29.166667	1	-0.356500
29.183333	1	-0.324125
29.200000	1	-0.289875
29.216667	1	-0.254500
29.233333	1	-0.218625
29.250000	1	-0.183000
29.266667	1	-0.146500
29.283333	1	-0.110250
29.300000	1	-0.074375
29.316667	1	-0.038875
29.333333	1	-0.003500
29.350000	1	0.030750
29.366667	1	0.064500
29.383333	1	0.097250
29.400000	1	0.128000
29.416667	1	0.157750
29.433333	1	0.187625
29.450000	1	0.215875
29.466667	1	0.242875
29.483333	1	0.267750
29.500000	1	0.291750
29.516667	1	0.313500
29.533333	1	0.334250
29.550000	1	0.353375
29.566667	1	0.370500
29.583333	1	0.385875
29.600000	1	0.400125
29.616667	1	0.413000
29.633333	1	0.425125
29.650000	1	0.435125
29.666667	1	0.443000
29.683333	1	0.450875
29.700000	1	0.456625
29.716667	1	0.460875
29.733333	1	0.464375
29.750000	1	0.466875
29.766667	1	0.468625
29.783333	1	0.468500
29.800000	1	0.468000
29.816667	1	0.467125
29.833333	1	0.465375
29.850000	1	0.463375
29.866667	1	0.460500
29.883333	1	0.457375
29.900000	1	0.453375
29.916667	1	0.448750
29.933333	1	0.444500
29.950000	1	0.440875
29.966667	1	0.436375
29.983333	1	0.431875
30.000000	1	0.427875
30.016667	1	0.424250
30.033333	1	0.420125
30.050000	1	0.416875
30.066667	1	0.413750
30.083333	1	0.410000
30.100000	1	0.407625
30.116667	1	0.405250
30.133333	1	0.402750
30.150000	1	0.401125
30.166667	1	0.400125
30.183333	1	0.399375
30.200000	1	0.399000
30.216667	1	0.398625
30.233333	1	0.398250
30.250000	1	0.398375
30.266667	1	0.398500
30.283333	1	0.399500
30.300000	1	0.401000
30.316667	1	0.403375
30.333333	1	0.406750
30.350000	1	0.409625
30.366667	1	0.413500
30.383333	1	0.418125
30.400000	1	0.423000
30.416667	1	0.429125
30.433333	1	0.435375
30.450000	1	0.442750
30.466667	1	0.450875
30.483333	1	0.459750
30.500000	1	0.469375
30.516667	1	0.480625
30.533333	1	0.492500
30.550000	1	0.505000
30.566667	1	0.518125
30.583333	1	0.532625
30.600000	1	0.547500
30.616667	1	0.563000
30.633333	1	0.578625
30.650000	1	0.594375
30.666667	1	0.610000
30.683333	1	0.625875
30.700000	1	0.641250
30.716667	1	0.655750
30.733333	1	0.669625
30.750000	1	0.682125
30.766667	1	0.693375
30.783333	1	0.703125
30.800000	1	0.712000
30.816667	1	0.718750
30.833333	1	0.723500
30.850000	1	0.726000
30.866667	1	0.726375
30.883333	1	0.725375
30.900000	1	0.721875
30.916667	1	0.716750
30.933333	1	0.708750
30.950000	1	0.699750
30.966667	1	0.688500
30.983333	1	0.675750
31.000000	1	0.662125
31.016667	1	0.646375
31.033333	1	0.630375
31.050000	1	0.612875
31.066667	1	0.594000
31.083333	1	0.575250
31.100000	1	0.555625
31.116667	1	0.536375
31.133333	1	0.516750
31.150000	1	0.497750
31.166667	1	0.478125
31.183333	1	0.459500
31.200000	1	0.441625
31.216667	1	0.424000
31.233333	1	0.407125
31.250000	1	0.391000
31.266667	1	0.375250
31.283333	1	0.360750
31.300000	1	0.346750
31.316667	1	0.333625
31.333333	1	0.321625
31.350000	1	0.310375
31.366667	1	0.299375
31.383333	1	0.289625
31.400000	1	0.281500
31.416667	1	0.273250
31.433333	1	0.266500
31.450000	1	0.259500
31.466667	1	0.253000
31.483333	1	0.247625
31.500000	1	0.242625
31.516667	1	0.238375
31.533333	1	0.234875
31.550000	1	0.231125
31.566667	1	0.229000
31.583333	1	0.226625
31.600000	1	0.224875
31.616667	1	0.224125
31.633333	1	0.223125
31.650000	1	0.222250
31.666667	1	0.222125
31.683333	1	0.222625
31.700000	1	0.223875
31.716667	1	0.225000
31.733333	1	0.227125
31.750000	1	0.229500
31.766667	1	0.231875
31.783333	1	0.234125
31.800000	1	0.237000
31.816667	1	0.240125
31.833333	1	0.243625
31.850000	1	0.247250
31.866667	1	0.250875
31.883333	1	0.254750
31.900000	1	0.258750
31.916667	1	0.263000
31.933333	1	0.267250
31.950000	1	0.271125
31.966667	1	0.274500
31.983333	1	0.277500
32.000000	1	0.280625
32.016667	1	0.284125
32.033333	1	0.286375
32.050000	1	0.288750
32.066667	1	0.290500
32.083333	1	0.291875
32.100000	1	0.292625
32.116667	1	0.293375
32.133333	1	0.294000
32.150000	1	0.293500
32.166667	1	0.292500
32.183333	1	0.291000
32.200000	1	0.289875
32.216667	1	0.287750
32.233333	1	0.285750
32.250000	1	0.282625
32.266667	1	0.279875
32.283333	1	0.276750
32.300000	1	0.272875
32.316667	1	0.269625
32.333333	1	0.266750
32.350000	1	0.264125
32.366667	1	0.261000
32.383333	1	0.258000
32.400000	1	0.254750
32.416667	1	0.251500
32.433333	1	0.248500
32.450000	1	0.245750
32.466667	1	0.243750
32.483333	1	0.240375
32.500000	1	0.238125
32.516667	1	0.235750
32.533333	1	0.232875
32.550000	1	0.231125
32.566667	1	0.229625
32.583333	1	0.227250
32.600000	1	0.224125
32.616667	1	0.221375
32.633333	1	0.218500
32.650000	1	0.216000
32.666667	1	0.212750
32.683333	1	0.209375
32.700000	1	0.205750
32.716667	1	0.202125
32.733333	1	0.198000
32.750000	1	0.193000
32.766667	1	0.187875
32.783333	1	0.182750
32.800000	1	0.177375
32.816667	1	0.172250
32.833333	1	0.167000
32.850000	1	0.161250
32.866667	1	0.155875
32.883333	1	0.149875
32.900000	1	0.144250
32.916667	1	0.138500
32.933333	1	0.132750
32.950000	1	0.127125
32.966667	1	0.122625
32.983333	1	0.116875
33.000000	1	0.111125
33.016667	1	0.106250
33.033333	1	0.101375
33.050000	1	0.096250
33.066667	1	0.091750
33.083333	1	0.088125
33.100000	1	0.084000
33.116667	1	0.080375
33.133333	1	0.076750
33.150000	1	0.073375
33.166667	1	0.069875
33.183333	1	0.066250
33.200000	1	0.063500
33.216667	1	0.061250
33.233333	1	0.058875
33.250000	1	0.055875
33.266667	1	0.053750
33.283333	1	0.051000
33.300000	1	0.048750
33.316667	1	0.046500
33.333333	1	0.044375
33.350000	1	0.043000
33.366667	1	0.041000
33.383333	1	0.039375
33.400000	1	0.037750
33.416667	1	0.035875
33.433333	1	0.034375
33.450000	1	0.032125
33.466667	1	0.031375
33.483333	1	0.029875
33.500000	1	0.028625
33.516667	1	0.027250
33.533333	1	0.026000
33.550000	1	0.024750
33.566667	1	0.023250
33.583333	1	0.022000
33.600000	1	0.021000
33.616667	1	0.019375
33.633333	1	0.018750
33.650000	1	0.018000
33.666667	1	0.016125
33.683333	1	0.015250
33.700000	1	0.014875
33.716667	1	0.013875
33.733333	1	0.013250
33.750000	1	0.012625
33.766667	1	0.012750
33.783333	1	0.012625
33.800000	1	0.012500
33.816667	1	0.012250
33.833333	1	0.012125
33.850000	1	0.012375
33.866667	1	0.013375
33.883333	1	0.014000
33.900000	1	0.015000
33.916667	1	0.015625
33.933333	1	0.016750
33.950000	1	0.017500
33.966667	1	0.018125
33.983333	1	0.019625
34.000000	1	0.020250
34.016667	1	0.021375
34.033333	1	0.022375
34.050000	1	0.023625
34.066667	1	0.025375
34.083333	1	0.026375
34.100000	1	0.027625
34.116667	1	0.029000
34.133333	1	0.031250
34.150000	1	0.032250
34.166667	1	0.033625
34.183333	1	0.035250
34.200000	1	0.036625
34.216667	1	0.038000
34.233333	1	0.040125
34.250000	1	0.041250
34.266667	1	0.043000
34.283333	1	0.044625
34.300000	1	0.046250
34.316667	1	0.047750
34.333333	1	0.049875
34.350000	1	0.050875
34.366667	1	0.052000
34.383333	1	0.053625
34.400000	1	0.055500
34.416667	1	0.057250
34.433333	1	0.057875
34.450000	1	0.058000
34.466667	1	0.059125
34.483333	1	0.061000
34.500000	1	0.061750
34.516667	1	0.062250
34.533333	1	0.062375
34.550000	1	0.063000
34.566667	1	0.063875
34.583333	1	0.064500
34.600000	1	0.064625
34.616667	1	0.065125
34.633333	1	0.065125
34.650000	1	0.065625
34.666667	1	0.065625
34.683333	1	0.065625
34.700000	1	0.066000
34.716667	1	0.066875
34.733333	1	0.068000
34.750000	1	0.068125
34.766667	1	0.068375
34.783333	1	0.069750
34.800000	1	0.070125
34.816667	1	0.071000
34.833333	1	0.072250
34.850000	1	0.073125
34.866667	1	0.074125
34.883333	1	0.075750
34.900000	1	0.077125
34.916667	1	0.078500
34.933333	1	0.080500
34.950000	1	0.082125
34.966667	1	0.085125
34.983333	1	0.087875
35.000000	1	0.090125
35.016667	1	0.092125
35.033333	1	0.094625
35.050000	1	0.097000
35.066667	1	0.099125
35.083333	1	0.101750
35.100000	1	0.104625
35.116667	1	0.107625
35.133333	1	0.110875
35.150000	1	0.114000
35.166667	1	0.117125
35.183333	1	0.120125
35.200000	1	0.123625
35.216667	1	0.126500
35.233333	1	0.129625
35.250000	1	0.132375
35.266667	1	0.135625
35.283333	1	0.138750
35.300000	1	0.142000
35.316667	1	0.145750
35.333333	1	0.149250
35.350000	1	0.152875
35.366667	1	0.155750
35.383333	1	0.158875
35.400000	1	0.161875
35.416667	1	0.165375
35.433333	1	0.168625
35.450000	1	0.171125
35.466667	1	0.173750
35.483333	1	0.176875
35.500000	1	0.179000
35.516667	1	0.181250
35.533333	1	0.183125
35.550000	1	0.184875
35.566667	1	0.186875
35.583333	1	0.188250
35.600000	1	0.189000
35.616667	1	0.189875
35.633333	1	0.191125
35.650000	1	0.192000
35.666667	1	0.192375
35.683333	1	0.194000
35.700000	1	0.194500
35.716667	1	0.194875
35.733333	1	0.195125
35.750000	1	0.195250
35.766667	1	0.195375
35.783333	1	0.195500
35.800000	1	0.195000
35.816667	1	0.194625
35.833333	1	0.194625
35.850000	1	0.194000
35.866667	1	0.193750
35.883333	1	0.194000
35.900000	1	0.193625
35.916667	1	0.193250
35.933333	1	0.192750
35.950000	1	0.192375
35.966667	1	0.191625
35.983333	1	0.191750
36.000000	1	0.191000
36.016667	1	0.190500
36.033333	1	0.190000
36.050000	1	0.189250
36.066667	1	0.188375
36.083333	1	0.188000
36.100000	1	0.187125
36.116667	1	0.186375
36.133333	1	0.185625
36.150000	1	0.184750
36.166667	1	0.184125
36.183333	1	0.183250
36.200000	1	0.181750
36.216667	1	0.180125
36.233333	1	0.178750
36.250000	1	0.177000
36.266667	1	0.175625
36.283333	1	0.174250
36.300000	1	0.172375
36.316667	1	0.170750
36.333333	1	0.169125
36.350000	1	0.168125
36.366667	1	0.166375
36.383333	1	0.164125
36.400000	1	0.162750
36.416667	1	0.161000
36.433333	1	0.159500
36.450000	1	0.158000
36.466667	1	0.155625
36.483333	1	0.153375
36.500000	1	0.151500
36.516667	1	0.149875
36.533333	1	0.147875
36.550000	1	0.145625
36.566667	1	0.143625
36.583333	1	0.141125
36.600000	1	0.138750
36.616667	1	0.135625
36.633333	1	0.133750
36.650000	1	0.130625
36.666667	1	0.128250
36.683333	1	0.125250
36.700000	1	0.122250
36.716667	1	0.119125
36.733333	1	0.115875
36.750000	1	0.112250
36.766667	1	0.108750
36.783333	1	0.105375
36.800000	1	0.101750
36.816667	1	0.098000
36.833333	1	0.094625
36.850000	1	0.091125
36.866667	1	0.088125
36.883333	1	0.084375
36.900000	1	0.081125
36.916667	1	0.077500
36.933333	1	0.073875
36.950000	1	0.070625
36.966667	1	0.067500
36.983333	1	0.065125
37.000000	1	0.062000
37.016667	1	0.058125
37.033333	1	0.055000
37.050000	1	0.051875
37.066667	1	0.049000
37.083333	1	0.046250
37.100000	1	0.044500
37.116667	1	0.042125
37.133333	1	0.039875
37.150000	1	0.037375
37.166667	1	0.035250
37.183333	1	0.033375
37.200000	1	0.031375
37.216667	1	0.029875
37.233333	1	0.028625
37.250000	1	0.026500
37.266667	1	0.025375
37.283333	1	0.024750
37.300000	1	0.023875
37.316667	1	0.022875
37.333333	1	0.022625
37.350000	1	0.022000
37.366667	1	0.020875
37.383333	1	0.020875
37.400000	1	0.019875
37.416667	1	0.019500
37.433333	1	0.018375
37.450000	1	0.017875
37.466667	1	0.018250
37.483333	1	0.018250
37.500000	1	0.018000
37.516667	1	0.018125
37.533333	1	0.018250
37.550000	1	0.019125
37.566667	1	0.019500
37.583333	1	0.019875
37.600000	1	0.020250
37.616667	1	0.020875
37.633333	1	0.021000
37.650000	1	0.021750
37.666667	1	0.021875
37.683333	1	0.022625
37.700000	1	0.023500
37.716667	1	0.023250
37.733333	1	0.024000
37.750000	1	0.025000
37.766667	1	0.025125
37.783333	1	0.025250
37.800000	1	0.025625
37.816667	1	0.026625
37.833333	1	0.027500
37.850000	1	0.027750
37.866667	1	0.028500
37.883333	1	0.029500
37.900000	1	0.029875
37.916667	1	0.030500
37.933333	1	0.030875
37.950000	1	0.030875
37.966667	1	0.031625
37.983333	1	0.031625
38.000000	1	0.032500
38.016667	1	0.032875
38.033333	1	0.033000
38.050000	1	0.033625
38.066667	1	0.034500
38.083333	1	0.033875
38.100000	1	0.033750
38.116667	1	0.033875
38.133333	1	0.033500
38.150000	1	0.033375
38.166667	1	0.032875
38.183333	1	0.032625
38.200000	1	0.032000
38.216667	1	0.032625
38.233333	1	0.032125
38.250000	1	0.031750
38.266667	1	0.030875
38.283333	1	0.030625
38.300000	1	0.029500
38.316667	1	0.028750
38.333333	1	0.028250
38.350000	1	0.027500
38.366667	1	0.027125
38.383333	1	0.025875
38.400000	1	0.025125
38.416667	1	0.024625
38.433333	1	0.023500
38.450000	1	0.022500
38.466667	1	0.021125
38.483333	1	0.021000
38.500000	1	0.019875
38.516667	1	0.019125
38.533333	1	0.017875
38.550000	1	0.016875
38.566667	1	0.015750
38.583333	1	0.015000
38.600000	1	0.013750
38.616667	1	0.012750
38.633333	1	0.011375
38.650000	1	0.011250
38.666667	1	0.010625
38.683333	1	0.009750
38.700000	1	0.009875
38.716667	1	0.008750
38.733333	1	0.008125
38.750000	1	0.007625
38.766667	1	0.007000
38.783333	1	0.006750
38.800000	1	0.006500
38.816667	1	0.006125
38.833333	1	0.005750
38.850000	1	0.005625
38.866667	1	0.005500
38.883333	1	0.005375
38.900000	1	0.005250
38.916667	1	0.005625
38.933333	1	0.005125
38.950000	1	0.005375
38.966667	1	0.005625
38.983333	1	0.005500
39.000000	1	0.005125
39.016667	1	0.005000
39.033333	1	0.005000
39.050000	1	0.005750
39.066667	1	0.006000
39.083333	1	0.005625
39.100000	1	0.006125
39.116667	1	0.006625
39.133333	1	0.007000
39.150000	1	0.007000
39.166667	1	0.007000
39.183333	1	0.007125
39.200000	1	0.007625
39.216667	1	0.007500
39.233333	1	0.007500
39.250000	1	0.007500
39.266667	1	0.007875
39.283333	1	0.008250
39.300000	1	0.008750
39.316667	1	0.009000
39.333333	1	0.009375
39.350000	1	0.009375
39.366667	1	0.009375
39.383333	1	0.009625
39.400000	1	0.010000
39.416667	1	0.010375
39.433333	1	0.011250
39.450000	1	0.012625
39.466667	1	0.014000
39.483333	1	0.015000
39.500000	1	0.016000
39.516667	1	0.017125
39.533333	1	0.017750
39.550000	1	0.018500
39.566667	1	0.019125
39.583333	1	0.019250
39.600000	1	0.020250
39.616667	1	0.021125
39.633333	1	0.021750
39.650000	1	0.022750
39.666667	1	0.023500
39.683333	1	0.024375
39.700000	1	0.026000
39.716667	1	0.027000
39.733333	1	0.027375
39.750000	1	0.028875
39.766667	1	0.029750
39.783333	1	0.030375
39.800000	1	0.029875
39.816667	1	0.030500
39.833333	1	0.030500
39.850000	1	0.031750
39.866667	1	0.031750
39.883333	1	0.032250
39.900000	1	0.033500
39.916667	1	0.034000
39.933333	1	0.034625
39.950000	1	0.035625
39.966667	1	0.035375
39.983333	1	0.035000
40.000000	1	0.035125
